219,185,135,81
201,185,130,81
193,184,125,82
186,183,120,83
182,180,122,88
177,178,123,92
173,176,124,96
188,180,124,96
203,184,123,96
227,185,120,98
258,188,126,96
290,192,132,93
321,196,137,91
346,191,140,92
370,186,143,94
395,181,145,95
419,176,148,96
424,174,148,95
429,173,148,94
434,172,148,93
427,173,146,96
419,174,144,100
406,179,141,97
393,184,137,94
380,188,133,91
359,181,124,98
337,174,115,104
316,166,106,111
303,161,107,114
290,156,109,116
277,151,111,119
275,155,111,119
273,158,111,119
271,161,111,119
288,168,107,113
291,175,118,107
293,182,128,100
295,188,139,94
310,184,143,96
302,180,146,98
294,176,150,100
286,172,154,102
269,174,148,98
253,176,143,93
236,177,137,89
223,180,132,88
209,183,126,86
196,186,120,85
182,188,115,83
185,186,114,85
187,183,114,86
189,180,113,88
192,177,113,89
203,169,117,91
214,160,121,93
225,151,125,94
236,142,130,96
243,144,133,94
251,146,136,93
258,148,139,91
266,150,143,89
277,163,143,87
276,167,143,87
274,171,144,87
273,176,144,87
270,178,140,87
266,180,135,87
263,182,130,87
260,184,125,87
256,187,120,87
256,190,119,88
255,193,117,88
255,196,115,89
259,196,116,90
263,197,117,91
268,197,118,92
272,197,119,93
277,198,120,94
274,195,107,95
272,192,111,96
270,189,115,97
268,187,119,98
266,180,124,98
264,174,130,97
263,168,135,97
264,166,141,94
269,163,144,84
274,160,148,74
274,157,152,77
273,153,156,80
273,153,156,79
274,153,156,77
279,153,151,76
283,153,147,75
266,153,165,74
264,154,165,79
263,156,165,83
240,159,165,83
217,163,165,83
208,164,150,89
192,168,150,83
174,171,142,84
155,174,133,84
137,176,134,85
119,179,135,85
117,177,132,87
116,174,128,89
114,171,129,91
112,169,130,93
110,166,132,94
128,168,128,94
146,169,125,94
164,171,122,93
182,172,119,93
179,174,137,93
197,170,132,94
208,167,133,95
219,164,135,97
230,161,137,98
250,159,131,96
275,157,119,94
289,163,131,94
308,157,148,91
320,155,152,88
332,152,157,84
344,150,161,81
356,148,165,78
367,142,155,75
360,143,157,71
352,145,159,68
345,146,161,65
330,148,154,63
312,157,145,63
295,166,135,64
277,176,126,65
256,179,126,71
236,183,126,78
216,181,130,84
195,179,133,91
187,180,133,92
180,181,133,93
172,182,133,94
164,183,133,94
160,179,133,95
155,176,132,96
151,172,132,97
147,168,132,98
157,164,128,81
168,158,129,80
178,152,130,78
188,146,132,76
212,142,132,74
237,138,132,71
249,137,135,67
260,135,139,63
264,134,137,65
268,133,135,67
257,136,136,67
247,139,138,68
237,142,139,68
226,145,141,68
216,148,143,69
206,152,141,75
197,156,139,81
188,160,137,87
179,164,135,93
174,168,140,92
168,172,144,92
178,170,140,95
188,168,135,98
200,171,133,95
213,174,132,93
225,176,130,90
238,179,128,87
247,176,130,88
255,172,132,89
292,176,119,74
303,170,135,85
312,166,138,81
320,162,141,78
329,157,144,74
338,153,146,70
342,145,140,77
345,138,133,83
351,137,116,82
355,129,89,93
358,126,69,104
362,124,48,115
359,127,39,112
348,131,46,110
338,135,53,109
327,138,60,107
297,148,102,98
277,151,117,91
270,157,126,86
263,163,135,81
256,168,144,76
263,163,148,82
269,158,152,88
275,153,156,94
279,153,154,96
284,152,153,97
288,151,152,98
278,155,149,93
268,159,146,88
258,163,143,83
242,160,132,86
225,157,121,89
208,158,114,86
192,151,130,94
168,148,139,104
163,141,135,107
159,134,132,111
155,127,128,115
156,126,127,117
158,125,125,119
160,124,124,120
181,127,120,117
202,131,117,114
223,135,113,111
242,145,120,96
260,155,128,81
284,156,135,81
308,158,143,81
332,159,150,81
355,159,149,80
377,160,149,79
399,161,148,78
405,161,144,76
410,161,141,74
416,161,137,72
411,160,134,72
406,159,131,72
405,159,119,72
382,157,122,72
355,151,132,76
338,144,121,84
321,137,111,93
285,130,120,98
249,124,130,104
235,124,129,109
222,125,128,114
208,126,128,119
193,140,136,109
188,142,133,113
184,137,130,124
184,148,131,112
184,159,132,99
184,170,133,87
204,174,113,76
210,172,120,81
216,170,128,87
227,170,134,87
238,170,140,87
249,170,146,87
253,168,146,88
257,167,146,89
261,166,146,90
265,164,146,91
269,163,146,93
260,163,144,86
251,164,143,80
242,164,141,74
227,155,130,86
213,146,120,98
199,137,109,109
186,131,108,113
172,126,107,117
168,129,109,120
166,132,112,120
165,134,115,119
164,137,119,119
184,139,115,114
205,141,112,110
225,144,109,106
245,146,106,102
263,150,115,98
280,154,124,94
297,158,133,91
312,161,148,83
325,161,149,85
338,161,151,86
351,161,152,87
355,160,152,87
358,159,152,87
362,159,152,87
359,158,146,87
355,157,140,88
352,157,134,88
349,156,128,89
345,155,122,89
345,156,119,91
345,157,115,93
345,158,111,94
345,159,107,96
337,161,116,89
328,163,125,82
321,159,134,88
314,155,143,94
309,156,143,94
305,156,143,94
300,157,143,94
295,157,143,94
291,161,137,90
286,166,132,85
282,170,127,80
278,175,122,75
273,179,117,70
271,177,116,72
268,175,116,74
266,173,116,76
264,174,128,78
273,172,124,79
282,171,120,81
292,170,117,82
301,168,113,83
300,168,117,81
300,168,120,78
299,168,124,75
299,168,128,72
293,164,120,79
286,161,113,85
280,157,106,92
273,153,98,98
269,152,98,102
265,151,98,106
261,151,98,109
256,150,98,113
263,153,106,107
270,156,114,100
276,160,122,94
283,163,129,88
290,166,137,81
306,164,140,84
322,162,143,87
338,160,146,90
354,158,149,93
356,161,152,91
362,162,152,91
368,163,152,92
374,163,152,92
380,164,152,93
381,163,129,94
382,162,107,96
374,157,93,104
366,151,80,111
358,151,72,111
333,148,82,113
308,144,92,115
282,140,102,117
276,140,104,119
270,140,106,120
264,140,107,122
280,151,81,111
297,161,54,100
299,161,42,100
301,161,30,100
303,161,19,100
296,138,23,96
289,114,27,93
281,91,31,89
274,68,35,85
267,45,39,81
260,22,43,78
240,11,56,72
249,3,61,56
253,3,57,43
264,3,43,26
0,0,0,0
0,0,0,0
0,0,0,0
0,0,0,0
0,0,0,0
0,0,0,0
0,0,0,0
0,0,0,0
0,0,0,0
0,0,0,0
0,0,0,0
0,0,0,0
0,0,0,0
0,0,0,0
0,0,0,0
0,0,0,0
0,0,0,0
334,9,48,44
310,3,74,69
308,35,85,52
295,48,98,44
301,59,91,44
312,107,98,37
297,127,117,57
301,146,122,61
306,159,128,70
310,166,132,85
319,168,134,90
327,170,136,95
336,172,138,100
344,174,140,104
353,176,143,109
354,180,140,104
355,184,136,98
356,188,133,93
347,184,123,99
337,180,114,105
327,176,104,111
306,169,111,114
285,163,119,116
264,157,126,119
257,154,124,121
251,151,122,124
256,156,123,124
262,161,123,124
268,165,124,124
273,170,124,124
293,180,123,117
314,191,123,109
334,201,122,102
371,211,139,96
390,211,139,96
414,211,141,104
423,208,141,105
432,205,141,106
433,199,143,108
433,194,144,111
418,193,139,109
418,203,146,106
404,207,126,99
390,211,106,93
374,205,107,101
359,200,109,110
343,194,111,119
332,190,111,120
321,187,110,121
310,183,109,122
311,184,107,122
313,185,106,122
314,187,104,122
322,200,115,106
329,213,127,90
329,201,146,113
336,203,146,113
348,200,147,115
361,197,148,118
373,194,148,120
374,187,150,123
375,179,152,126
372,177,152,126
369,176,152,126
325,181,165,122
305,187,161,117
277,190,157,111
249,194,152,106
225,196,144,106
179,200,133,98
159,195,129,98
140,190,124,98
111,180,142,101
83,169,160,105
88,168,150,108
93,166,141,111
105,171,141,110
117,175,142,109
129,179,143,107
179,186,134,102
218,196,137,101
240,196,143,100
266,192,165,100
300,189,154,100
334,185,143,100
356,179,143,100
351,176,154,104
347,173,165,109
342,170,176,113
329,174,167,119
314,179,159,112
300,185,151,105
286,190,143,98
264,182,145,106
242,174,148,114
219,166,150,122
212,161,150,125
205,156,150,129
199,151,150,132
199,148,150,135
221,154,133,130
242,160,115,124
264,166,98,119
277,163,104,122
299,172,146,107
297,176,161,104
318,178,160,108
339,180,159,112
360,183,157,117
389,187,149,112
417,190,140,107
445,194,132,102
462,187,137,107
479,179,143,113
495,172,148,119
494,172,148,119
493,173,148,119
491,173,148,119
490,174,148,119
451,177,148,119
419,177,143,119
401,190,126,109
377,200,111,100
353,209,96,91
340,209,63,91
327,209,30,91
282,187,74,107
258,187,98,108
234,187,122,109
225,190,128,109
234,195,123,106
243,200,119,102
251,204,114,98
260,209,109,94
277,199,142,106
294,197,142,110
312,195,142,114
329,192,143,119
324,193,140,117
319,193,138,115
314,194,135,113
297,193,135,113
280,192,135,113
264,190,135,113
243,197,131,105
222,203,127,98
201,198,132,104
202,197,135,103
203,197,139,103
204,196,143,102
240,196,132,102
255,192,136,95
269,188,141,88
284,185,146,81
297,180,148,78
310,176,150,74
323,172,152,70
328,168,157,75
332,164,161,80
338,166,152,84
343,168,144,88
349,170,135,93
354,171,140,93
359,171,145,93
364,172,150,93
373,174,151,89
382,176,151,85
392,177,152,81
398,177,151,79
405,177,149,77
412,177,148,74
408,177,146,75
403,177,144,75
399,177,143,76
395,179,139,72
392,181,135,67
388,183,132,63
387,182,133,64
386,182,135,66
385,182,137,67
384,181,139,69
384,179,135,75
384,176,132,81
384,174,128,88
384,172,124,94
382,169,125,93
380,166,126,91
377,163,127,89
375,161,128,87
377,156,132,82
380,151,137,78
382,147,142,81
384,142,146,83
392,139,146,79
400,135,146,75
405,140,146,70
405,141,146,69
405,141,146,68
406,142,146,66
406,142,146,65
404,144,143,68
402,146,140,70
399,148,137,73
397,150,133,76
393,141,112,97
390,133,91,119
383,135,90,122
376,137,90,126
369,138,89,130
363,145,103,120
356,152,117,111
349,159,132,102
361,169,128,84
364,169,134,88
368,168,139,93
370,168,136,93
372,167,134,94
375,166,132,94
376,170,135,90
376,174,138,86
377,177,141,81
375,177,141,81
373,177,141,81
371,177,141,81
372,177,137,83
374,176,133,84
375,176,130,85
374,178,131,82
373,181,132,80
372,184,132,77
371,187,133,74
372,186,134,76
372,185,134,78
373,185,134,81
374,184,135,83
374,184,135,85
375,183,135,87
373,182,135,85
371,181,135,83
369,181,135,81
375,185,135,80
375,185,135,80
375,185,135,80
375,185,135,80
375,184,135,80
375,184,135,80
375,184,135,80
375,184,135,80
375,184,135,80
375,184,135,80
375,184,135,80
375,184,135,81
375,184,135,81
375,184,135,81
375,184,135,81
375,184,135,81
375,183,135,81
375,183,135,81
375,183,135,81
375,183,135,81
375,183,135,81
375,183,135,81
375,183,135,81
375,183,135,81
375,176,135,91
375,170,134,96
375,165,132,101
375,160,131,106
375,155,130,111
380,151,133,98
386,156,137,88
392,161,141,78
398,152,122,93
404,143,104,107
410,135,85,122
426,141,53,120
442,148,20,119
438,150,39,115
420,151,78,112
402,153,117,109
384,155,156,106
390,151,144,109
397,148,133,113
403,144,122,117
409,144,124,110
415,144,126,103
421,144,128,96
428,145,135,95
435,145,141,94
442,146,148,93
447,147,148,94
453,148,148,96
458,150,148,98
463,150,148,100
468,150,148,102
472,150,148,104
477,150,148,106
483,149,150,107
490,148,152,108
496,147,154,110
503,146,156,111
500,145,158,112
497,143,161,112
494,142,164,113
492,140,167,113
487,138,163,112
483,136,160,111
478,134,157,110
474,131,153,109
469,129,150,107
455,134,146,103
440,139,143,99
425,145,139,95
410,150,135,91
389,154,131,79
368,155,138,92
347,157,144,106
346,158,138,112
345,159,131,119
343,161,124,126
355,170,111,123
367,179,98,120
379,190,93,115
395,192,83,109
412,193,103,104
429,194,124,98
435,187,136,104
442,180,149,109
449,174,161,115
461,168,162,117
472,161,162,119
484,155,163,120
487,153,163,120
490,150,163,119
493,148,163,119
491,150,159,120
489,151,154,121
486,153,150,122
480,156,147,123
474,159,144,123
468,163,141,124
468,163,141,124
468,163,141,123
468,164,141,123
468,164,141,122
475,161,141,120
482,158,141,117
490,155,141,115
489,159,139,110
487,163,137,105
486,166,135,100
480,166,136,101
474,166,137,102
468,166,138,103
462,166,139,104
454,169,148,100
445,171,157,96
456,173,147,93
466,176,137,89
463,174,143,92
461,172,148,95
459,170,154,99
456,168,159,102
461,171,153,98
466,174,147,93
471,177,141,89
455,178,152,91
439,178,164,93
441,178,157,96
443,179,150,98
445,179,143,100
439,180,148,99
432,180,154,98
425,181,159,96
426,181,159,97
428,182,158,98
429,182,157,99
431,183,156,99
432,183,156,100
430,182,153,100
427,182,151,99
424,182,149,99
421,181,146,98
405,182,140,93
389,182,134,88
373,183,128,83
342,176,136,90
310,168,144,96
297,163,146,90
283,157,148,88
269,151,150,87
277,153,141,70
285,152,132,66
293,152,124,62
301,157,115,63
326,145,120,76
350,134,126,89
375,122,132,102
400,112,136,101
409,110,140,101
418,109,144,100
430,116,144,83
