306,149,137,100
306,148,137,100
306,148,137,100
306,147,137,100
306,147,137,100
306,146,137,100
306,146,137,100
306,146,137,100
306,146,137,100
306,146,137,100
306,146,137,100
306,146,136,100
306,146,136,100
305,146,136,100
305,146,136,100
305,146,136,100
305,146,136,100
305,146,136,100
305,146,136,100
304,147,136,100
304,148,136,100
303,149,136,100
303,150,136,100
302,151,136,100
300,151,136,100
298,151,136,101
296,151,136,101
294,151,136,102
292,151,136,102
289,152,138,103
287,152,140,103
285,152,142,103
283,153,144,103
281,153,146,104
281,152,147,104
281,152,147,104
281,151,147,104
281,151,147,104
281,150,148,104
283,150,148,105
285,149,149,105
287,149,150,106
289,148,151,107
292,147,152,108
295,146,153,109
297,145,154,110
300,144,156,112
303,143,157,113
306,142,158,114
307,141,158,114
308,140,158,114
308,139,158,114
309,138,158,114
310,137,158,114
310,136,158,114
311,136,158,115
311,136,158,115
312,136,158,115
312,137,157,115
313,137,157,116
312,138,156,115
311,140,155,114
310,142,155,113
309,143,154,113
308,145,153,112
305,146,152,111
302,147,150,110
296,148,150,110
290,149,150,110
285,149,148,113
280,150,146,116
278,151,147,116
276,152,147,116
274,153,147,116
272,154,147,116
270,155,148,116
272,156,148,116
274,156,148,116
276,156,148,116
278,157,148,116
280,157,148,116
279,156,149,117
279,155,150,118
279,154,152,120
279,153,153,121
278,151,154,122
281,150,151,123
284,149,147,123
287,148,143,124
290,147,139,125
293,146,136,125
301,147,124,123
308,147,112,120
316,148,100,118
324,148,88,115
332,149,76,113
329,146,86,117
325,143,96,117
321,140,106,117
317,137,116,117
313,133,126,117
309,130,136,117
306,130,139,117
304,130,142,117
302,130,145,118
300,130,147,118
299,129,149,119
297,129,152,120
297,129,152,119
298,130,151,119
298,130,151,119
299,131,151,118
299,131,151,118
299,131,151,118
300,132,151,118
300,132,151,117
301,133,151,117
301,133,151,117
301,133,151,116
302,134,150,116
302,134,150,116
302,134,150,116
302,133,150,116
302,133,150,116
302,132,150,116
302,132,150,116
302,131,150,117
301,131,150,117
301,131,150,118
300,130,150,119
300,130,150,120
300,130,149,119
300,130,147,118
300,130,146,117
300,130,144,117
300,130,142,116
296,131,142,115
292,131,142,115
288,132,142,115
284,132,142,115
280,133,142,114
279,133,141,114
279,133,139,113
278,133,138,112
278,133,136,111
277,133,134,110
276,133,135,111
274,132,135,111
273,132,136,111
272,132,136,111
270,132,137,112
271,132,137,112
271,132,137,112
272,132,137,112
272,133,137,112
273,133,137,112
273,133,135,112
274,133,132,112
274,133,130,113
274,133,127,113
274,133,125,113
277,133,126,113
280,133,127,114
283,134,127,114
286,134,128,114
289,134,129,114
289,134,131,114
289,134,133,113
289,134,135,113
289,134,138,112
289,134,140,112
290,133,140,113
291,133,141,113
292,132,141,114
293,131,142,115
294,130,142,116
296,127,147,118
298,123,151,121
300,120,155,123
302,116,159,125
304,113,164,128
306,115,162,127
308,118,161,125
310,120,159,124
312,123,157,123
315,125,156,122
317,128,154,121
315,130,152,119
314,133,150,117
312,136,147,115
310,139,145,114
309,142,142,112
304,142,143,111
300,143,143,111
295,143,144,110
291,143,144,110
286,144,145,109
284,143,145,109
283,143,145,109
281,143,145,109
279,142,145,109
277,142,145,109
276,142,143,110
275,142,142,111
274,142,140,112
273,142,139,113
272,142,137,114
275,141,134,114
279,141,131,114
283,140,127,114
287,139,124,113
290,138,121,113
293,138,119,113
295,138,117,113
297,137,115,113
300,137,114,113
302,137,112,113
300,137,116,113
297,138,121,113
294,138,125,113
292,139,130,113
289,140,134,113
288,140,134,113
287,140,134,113
287,140,134,113
286,141,134,113
285,141,134,113
282,142,134,113
279,142,134,113
276,143,134,113
273,144,134,113
270,145,134,113
268,145,134,113
267,145,134,113
265,145,134,113
263,145,134,113
261,145,134,113
261,145,135,113
262,145,135,112
262,145,136,111
262,145,136,111
262,145,137,110
261,145,138,111
260,145,140,111
259,145,141,111
258,145,142,111
258,145,144,112
257,146,145,112
256,146,146,112
255,146,148,112
254,146,149,113
253,146,150,113
252,146,152,113
261,144,140,113
270,143,128,114
280,141,116,114
289,139,105,114
298,137,93,114
308,136,81,114
313,133,76,116
319,131,71,118
324,129,65,119
330,127,60,121
335,124,55,122
341,122,49,124
343,124,44,125
344,127,39,125
346,129,35,126
346,129,31,125
346,130,27,125
346,130,24,124
344,131,28,122
343,133,32,120
341,134,35,118
339,135,39,116
338,136,43,114
336,137,47,112
335,138,51,110
333,140,55,108
317,141,80,106
298,136,108,114
285,138,126,110
269,137,152,116
253,136,177,122
262,133,166,121
270,130,156,119
279,128,145,117
287,125,134,115
296,122,124,113
303,112,102,118
311,102,79,123
316,91,75,128
321,81,70,133
313,81,68,142
301,81,82,144
293,69,97,152
293,65,97,154
293,61,98,156
293,57,98,159
293,53,98,161
297,55,93,159
302,56,88,157
307,58,82,156
318,59,71,148
329,61,59,141
329,78,78,124
290,120,98,73
280,136,98,44
301,143,109,35
295,139,120,39
303,123,128,77
310,118,145,114
310,122,143,115
309,125,141,116
309,129,140,117
297,130,158,122
297,130,158,130
292,132,165,133
292,132,164,133
292,132,163,133
292,132,162,133
292,132,161,133
292,134,161,130
292,137,160,128
292,140,160,125
292,142,160,122
292,145,160,120
284,146,161,123
277,146,162,126
270,147,163,129
263,148,164,131
256,149,165,134
256,149,165,133
256,149,166,131
256,149,167,130
256,149,167,128
256,149,168,126
260,148,168,126
264,148,168,126
268,147,168,126
273,147,168,126
277,146,168,126
282,147,165,125
287,148,163,123
291,149,160,121
296,149,158,119
301,150,156,117
302,150,156,117
304,149,156,117
305,149,156,117
306,148,156,117
308,147,156,117
316,143,156,117
324,139,156,117
332,135,156,117
341,130,156,117
349,126,156,117
365,119,153,119
381,112,151,122
397,105,149,124
413,97,151,127
429,90,153,129
446,90,157,129
454,91,158,129
462,91,160,130
471,91,161,130
479,91,162,130
487,92,164,130
490,90,164,130
491,92,162,129
491,95,160,128
492,97,158,126
493,99,156,125
494,101,154,124
494,101,152,123
494,101,149,123
494,101,146,122
494,101,144,122
494,101,141,121
486,101,141,121
478,102,141,121
471,103,141,121
463,103,141,121
455,104,141,121
441,106,144,121
426,109,146,121
411,112,149,121
397,114,152,121
382,117,154,121
378,119,156,122
375,121,157,123
371,122,158,123
367,124,160,124
363,126,161,125
364,126,160,125
365,126,158,126
366,126,157,126
367,126,156,126
367,126,154,126
363,126,154,126
359,126,154,126
355,125,154,126
350,125,154,126
346,125,154,126
335,125,157,125
323,125,159,124
312,125,161,122
300,125,164,121
289,125,166,120
280,123,167,123
270,121,167,126
261,118,167,129
252,116,167,131
242,114,168,134
244,114,161,132
246,114,154,130
248,114,147,128
250,114,140,126
252,114,133,124
257,116,129,124
262,118,126,124
268,120,122,124
273,122,118,124
278,124,114,124
279,123,114,124
279,123,114,124
279,122,114,124
279,122,114,124
279,121,114,124
280,121,114,124
281,120,115,124
283,119,115,125
284,118,115,125
286,118,115,126
288,117,116,126
292,118,112,125
296,119,108,123
300,120,104,122
304,121,100,120
308,122,96,118
310,124,94,117
312,126,92,115
314,128,90,113
316,129,88,111
318,131,86,110
320,133,84,108
320,133,86,110
320,134,89,111
321,134,91,113
321,135,94,115
322,135,96,117
322,136,98,118
314,134,106,121
307,133,113,123
299,132,120,125
291,131,127,127
284,130,134,129
279,132,138,128
274,133,141,128
269,134,144,127
264,136,148,126
259,137,151,126
254,138,154,125
258,141,153,122
262,143,152,119
266,145,151,116
270,148,150,113
274,150,149,110
279,150,148,111
283,149,148,111
287,149,147,111
291,148,146,111
295,148,146,112
300,147,145,112
301,148,144,112
302,148,143,112
304,148,143,113
305,149,142,113
306,149,141,113
306,149,142,113
306,149,144,114
306,149,145,114
306,149,146,114
306,149,148,114
304,149,149,115
301,149,151,115
299,149,152,115
296,149,154,115
294,149,155,116
292,149,157,116
288,148,155,117
285,148,153,117
282,147,151,118
279,147,150,119
276,146,148,120
274,146,148,119
273,146,148,118
272,146,148,118
270,146,148,117
269,146,148,116
268,146,148,116
271,145,147,115
275,144,145,114
278,144,144,114
282,143,143,113
285,142,142,112
289,141,141,112
294,139,140,112
299,137,139,112
303,134,138,112
308,132,137,112
313,130,136,112
318,127,136,113
324,124,136,114
329,121,136,114
334,118,137,115
339,115,137,116
345,112,137,117
350,105,139,117
355,99,140,118
360,92,142,118
365,86,143,118
370,80,145,118
377,77,145,118
383,75,145,117
390,72,145,117
397,70,145,116
403,68,145,116
406,67,147,116
409,66,149,116
412,64,151,116
415,63,154,116
418,62,156,116
419,63,153,116
421,63,151,116
422,64,148,116
423,64,146,116
425,65,144,116
425,65,144,116
426,65,144,116
426,65,144,116
427,65,144,116
427,65,144,116
421,68,147,116
416,70,150,117
410,73,152,117
404,76,155,118
398,78,158,118
288,151,176,135
290,150,176,135
291,149,175,135
293,148,175,134
294,147,174,134
306,148,168,132
317,149,162,129
322,147,157,126
330,146,152,125
339,145,148,123
347,144,143,122
355,143,139,120
363,142,134,118
364,142,137,118
365,141,140,117
366,141,142,116
367,140,145,115
367,140,148,114
367,138,149,115
366,136,150,116
366,135,151,117
365,133,152,118
365,132,153,118
365,132,153,116
366,133,154,113
366,133,154,110
367,134,154,108
367,134,154,105
364,136,154,105
361,137,154,105
358,138,154,105
355,140,154,105
351,141,154,105
351,141,151,107
351,141,148,110
351,142,145,112
351,142,142,115
351,142,138,117
350,144,139,116
348,145,140,115
347,146,141,115
345,147,142,114
343,149,142,113
343,149,142,113
342,149,142,113
341,149,142,113
341,150,142,113
340,150,142,113
339,150,142,113
338,150,142,113
337,150,142,113
336,150,142,113
334,150,142,113
333,150,142,113
332,150,142,113
332,149,142,114
332,148,142,115
332,147,141,116
332,146,141,117
333,145,141,118
333,144,140,118
333,142,140,119
333,141,140,120
334,140,139,121
334,139,139,122
334,138,139,123
334,137,138,124
335,136,137,123
336,135,135,122
336,134,134,122
337,133,132,121
338,132,131,120
338,132,129,120
338,130,129,121
337,128,128,122
336,127,128,124
336,125,127,125
335,124,127,126
334,122,126,128
334,124,126,127
333,126,126,126
333,128,126,125
332,130,126,125
332,132,126,124
326,134,130,125
321,136,134,126
316,138,138,127
310,140,142,128
305,142,146,129
305,144,142,128
305,145,137,126
301,146,139,126
297,147,141,126
293,147,144,126
289,148,146,125
285,149,148,125
281,150,150,125
278,150,151,125
276,150,151,125
273,150,151,125
270,150,151,125
268,150,151,125
265,150,152,125
264,151,152,125
263,151,153,125
263,152,154,125
262,152,155,125
261,153,156,125
261,153,156,125
260,153,156,126
260,153,157,126
259,153,157,127
259,153,157,127
258,153,158,127
258,153,158,128
257,153,159,128
257,153,159,128
256,153,159,129
256,153,160,129
255,152,162,130
254,151,164,131
253,150,167,131
252,150,169,132
252,149,172,133
254,149,170,133
255,149,168,133
257,149,166,133
259,149,164,133
261,149,162,133
260,149,162,133
260,150,162,133
259,151,162,133
259,151,162,133
258,152,162,133
258,153,162,133
257,153,162,133
257,154,162,133
256,155,162,133
256,155,162,133
255,154,161,134
254,153,160,135
253,152,158,135
252,151,157,136
252,150,156,137
252,150,156,137
252,150,156,137
252,150,156,137
252,150,157,137
252,150,157,137
252,150,157,137
252,150,158,138
252,150,158,138
252,150,158,138
252,149,158,138
252,149,159,138
252,149,159,138
252,149,159,138
252,149,160,138
252,149,160,138
252,149,160,138
252,149,160,138
252,149,161,138
252,149,161,138
252,149,160,138
253,149,160,138
253,149,159,138
254,149,158,138
254,149,157,138
255,149,157,138
255,149,156,138
256,149,155,138
256,149,154,138
257,149,154,138
257,149,153,138
257,149,150,138
257,149,147,138
257,149,143,138
257,149,140,138
257,149,137,138
260,152,134,138
263,155,131,138
267,158,128,138
270,161,125,137
273,163,122,137
274,167,123,136
276,170,123,136
277,174,124,135
278,177,125,135
280,181,125,134
281,181,126,136
282,181,127,138
283,182,127,140
284,182,128,142
285,182,129,144
288,183,129,142
291,183,128,141
295,184,127,140
298,184,127,138
301,185,126,137
300,185,126,137
299,184,126,137
299,184,126,137
298,184,126,137
297,184,126,137
297,184,126,137
296,183,126,137
295,183,126,137
294,183,126,137
294,183,126,137
293,182,126,137
292,182,126,137
292,182,126,137
289,183,126,137
287,184,126,137
285,185,126,137
283,186,126,137
281,187,126,137
281,187,128,137
281,187,130,137
281,186,132,137
281,186,133,137
281,185,135,138
281,185,137,138
281,184,139,138
281,184,141,138
281,183,142,138
281,183,144,138
281,183,146,138
281,182,148,138
282,180,149,139
284,178,151,139
285,176,153,139
286,174,155,139
288,172,157,139
289,170,158,140
289,170,159,139
290,170,159,139
291,170,160,138
291,170,160,138
292,170,161,137
292,169,159,138
292,169,157,138
292,168,154,139
292,167,152,140
292,167,150,140
292,166,148,141
286,165,150,141
280,165,153,141
277,163,153,141
275,161,153,141
272,158,153,141
270,156,153,141
268,154,153,141
266,156,155,140
264,158,156,138
262,160,158,137
260,162,159,136
258,164,161,134
256,166,162,133
256,165,165,134
256,165,168,134
256,164,171,135
256,163,174,136
256,163,177,136
256,162,180,137
256,162,180,137
257,162,180,137
258,162,180,137
258,162,180,137
259,162,180,137
260,162,180,137
260,162,181,137
260,162,182,137
260,162,183,137
260,162,184,137
260,162,185,137
260,162,186,137
260,162,187,137
260,162,188,137
260,162,189,137
260,162,190,137
260,162,189,137
260,162,189,137
260,162,188,137
260,162,187,137
260,162,186,137
257,159,186,140
254,155,187,143
252,151,187,146
249,148,187,149
246,144,187,151
244,141,188,154
240,142,192,155
237,144,197,157
234,146,202,158
230,147,206,159
227,149,211,160
224,150,216,161
226,154,209,157
229,158,203,153
231,161,197,150
234,165,191,146
236,169,184,142
238,173,178,138
242,173,172,136
246,174,166,134
246,177,166,132
246,179,165,129
257,179,158,129
260,182,153,127
262,184,149,125
265,186,144,122
267,186,144,122
269,186,144,122
271,186,144,122
272,186,144,122
274,186,144,122
278,186,144,122
282,185,144,122
286,185,144,122
289,184,144,122
293,184,144,122
297,183,144,122
297,183,144,122
297,183,144,122
297,183,144,122
297,183,144,122
297,182,144,122
297,182,144,122
294,181,145,123
291,180,147,123
288,179,149,124
285,179,151,124
283,178,153,125
280,177,154,125
276,177,155,125
272,176,156,125
268,176,156,126
264,176,157,126
260,176,158,126
256,175,158,126
249,176,159,127
243,176,160,128
236,177,161,128
230,177,162,129
224,178,163,130
217,178,164,130
211,177,167,131
205,176,169,132
199,175,172,133
193,175,175,134
187,174,178,135
181,173,181,136
181,173,179,135
181,173,178,134
181,173,176,133
181,173,175,132
181,173,173,131
181,173,172,130
185,173,171,130
188,173,171,129
192,173,170,129
195,174,170,129
199,174,169,128
202,174,169,128
213,172,169,128
224,169,170,129
235,167,170,130
246,164,170,131
257,162,171,132
267,159,171,132
278,157,172,133
284,154,174,134
290,151,175,136
297,148,177,137
303,145,179,138
309,142,181,140
315,139,183,141
321,136,185,142
321,136,184,142
321,136,183,142
321,136,182,142
321,136,181,142
321,136,180,142
321,136,180,142
312,136,184,145
304,136,188,147
295,142,183,143
286,148,178,139
278,155,173,135
269,161,168,132
254,172,151,124
234,176,157,124
214,181,163,125
193,185,169,125
162,190,186,132
159,194,176,128
154,193,176,129
150,192,176,130
145,191,176,132
149,191,184,132
153,190,192,132
157,189,201,132
186,184,189,128
215,179,177,125
244,175,166,122
273,170,154,118
301,153,172,131
330,137,158,136
342,125,180,148
365,114,176,156
374,112,177,150
383,109,178,144
391,106,178,144
398,104,178,144
398,106,175,144
399,108,172,144
399,111,168,144
399,113,165,144
379,123,162,137
358,133,160,131
337,144,157,125
317,148,164,129
297,153,170,132
264,156,177,136
231,160,184,139
198,164,190,143
165,167,197,146
153,171,192,146
145,171,184,146
125,173,206,145
135,171,205,144
144,169,204,144
153,168,202,143
163,166,201,142
195,164,192,143
228,162,183,143
260,160,174,143
292,158,164,125
302,151,169,132
326,129,170,149
349,118,170,149
367,105,174,158
362,98,186,162
359,93,196,162
355,93,204,166
355,93,198,166
355,93,192,166
352,97,184,159
349,102,176,151
346,106,169,143
343,110,161,136
343,130,161,116
343,146,142,96
337,153,142,96
289,133,194,124
279,135,196,134
269,137,197,144
267,142,197,145
266,147,198,147
264,152,198,149
262,157,198,150
261,157,198,150
259,157,198,150
257,157,198,150
256,157,198,150
254,158,198,150
253,158,198,150
251,158,198,150
249,158,198,150
248,158,198,150
234,158,198,149
220,157,198,147
206,157,198,146
192,156,198,144
179,155,198,142
184,155,164,138
190,154,130,133
196,154,96,129
218,159,62,124
221,159,56,120
222,147,71,127
222,136,86,134
222,132,114,138
222,134,130,136
222,134,140,130
222,134,149,125
223,134,149,125
224,133,149,125
220,133,149,125
217,134,149,125
214,134,149,125
210,134,149,125
205,136,152,123
199,138,154,122
194,140,157,120
188,142,160,118
194,141,161,120
200,140,161,122
207,139,162,123
213,138,170,125
229,137,166,123
244,136,162,122
260,134,158,120
276,133,154,118
286,133,154,118
293,132,154,118
300,130,154,118
306,129,154,118
305,130,154,118
304,131,154,118
303,132,154,118
302,133,154,118
296,134,154,118
289,136,154,118
283,138,154,118
277,139,154,118
270,141,154,118
255,144,156,121
240,147,158,124
224,150,159,126
209,153,161,129
183,161,188,128
178,163,180,129
173,165,172,130
184,166,142,128
195,167,112,126
213,173,87,120
232,178,63,113
217,155,82,125
191,154,146,126
187,155,178,122
189,154,177,127
191,153,176,132
193,151,175,138
195,150,174,143
197,149,173,148
199,152,170,148
202,155,167,148
204,158,165,149
206,161,162,149
200,157,168,153
191,157,175,149
182,157,182,146
173,157,190,142
164,157,197,138
190,161,144,128
213,153,85,128
233,147,68,136
221,145,80,136
195,147,122,128
169,149,164,120
165,153,170,114
167,153,169,116
168,153,167,117
170,153,165,118
171,153,163,120
173,153,161,121
175,153,160,122
182,151,159,123
189,150,159,123
196,148,158,124
203,146,158,125
210,145,157,125
223,143,157,125
235,141,156,124
248,139,156,123
260,137,156,123
273,136,156,122
276,140,165,118
281,139,165,118
287,139,165,118
292,139,165,118
298,138,165,118
304,138,165,118
305,139,165,120
307,139,164,122
308,140,164,123
310,140,164,125
312,141,164,126
312,141,164,126
312,140,164,126
312,140,164,126
312,140,164,126
312,140,164,126
311,140,164,126
310,141,164,126
309,141,164,125
308,142,164,125
307,143,164,125
306,143,164,124
306,144,164,124
305,144,165,123
304,145,165,123
303,146,165,123
302,146,165,122
302,148,165,122
301,150,165,122
300,152,165,122
300,154,165,122
299,156,165,122
299,158,165,122
298,160,165,122
298,162,165,122
297,163,165,122
295,165,167,122
292,166,169,121
290,167,170,120
290,169,170,120
289,171,170,120
288,172,170,120
288,174,170,120
287,175,170,120
286,177,170,120
285,177,170,120
284,177,170,120
283,178,170,120
282,178,170,120
281,178,170,120
279,179,170,120
278,179,170,120
276,180,170,120
275,180,170,120
273,181,170,120
271,181,171,121
269,181,171,122
267,181,172,123
266,181,172,124
264,181,173,125
264,179,173,125
264,177,173,125
264,175,173,125
265,173,173,125
265,171,173,125
267,169,171,123
269,166,170,122
271,163,168,120
274,161,167,119
276,158,165,117
273,148,165,118
271,138,165,119
268,129,165,119
266,119,165,120
264,109,165,121
264,109,164,121
264,109,164,121
264,109,163,121
264,109,162,121
264,109,161,121
264,109,161,121
264,109,160,121
264,109,159,121
264,109,159,121
264,109,158,121
264,109,157,121
264,109,156,121
264,109,156,121
258,105,159,127
252,100,161,133
246,96,164,139
240,92,167,146
234,88,170,152
232,88,171,152
230,88,171,153
228,88,172,154
226,88,172,155
224,88,173,156
225,88,173,155
226,89,172,154
227,89,172,154
229,90,171,153
230,90,171,153
231,91,171,152
232,91,170,151
233,92,170,151
235,92,170,150
236,92,169,150
237,93,169,149
232,101,169,145
227,110,168,142
222,118,168,138
218,127,167,135
213,135,167,131
208,144,166,128
196,144,173,131
184,144,179,134
172,145,186,137
160,145,192,140
148,146,198,143
136,146,205,146
141,146,206,147
146,146,207,147
151,145,208,147
156,145,209,147
161,145,210,148
185,140,205,147
209,136,199,146
232,131,193,144
256,127,188,143
280,122,182,142
291,114,182,145
302,106,182,147
313,97,182,150
324,89,182,152
336,81,182,154
347,87,167,143
341,97,162,139
335,107,157,135
300,121,159,129
265,136,161,122
230,140,188,131
195,144,214,140
168,142,213,146
160,140,212,151
152,139,210,155
144,137,209,160
144,137,219,161
166,139,211,161
188,141,202,161
218,147,172,145
250,144,132,145
273,144,114,138
282,144,117,132
298,150,97,125
284,147,118,128
270,144,138,130
255,141,159,133
241,138,179,136
226,136,200,138
220,140,205,142
214,145,210,146
219,146,204,146
224,146,197,145
224,149,197,143
224,153,197,142
225,156,197,140
225,159,197,138
222,159,196,139
219,158,195,139
216,157,194,140
213,156,192,140
210,155,191,141
206,154,190,141
204,153,191,141
202,152,192,141
200,151,193,141
198,151,194,141
195,150,195,141
193,149,196,141
196,149,196,141
198,149,196,141
200,149,196,141
203,149,196,141
205,149,196,141
208,149,196,141
207,149,196,141
206,149,196,141
205,149,196,141
204,149,196,141
202,149,196,141
201,150,196,141
200,150,196,141
199,150,197,141
198,150,197,141
197,150,197,141
194,150,194,141
191,151,191,142
188,151,188,142
184,151,185,142
181,151,182,142
195,145,154,149
234,149,89,150
250,144,68,153
252,150,84,138
248,147,120,133
229,151,153,121
233,147,166,126
233,147,170,125
232,147,174,125
232,146,178,124
234,146,177,123
237,146,176,123
239,145,174,122
241,145,173,122
244,145,172,121
245,145,171,121
245,145,170,121
246,145,169,121
247,145,168,121
248,145,168,121
243,144,169,124
239,143,170,127
234,142,171,131
230,141,172,134
225,140,173,137
225,140,173,137
224,140,173,137
223,140,173,137
223,141,173,137
222,141,173,137
222,141,173,136
222,141,173,135
222,141,174,134
222,141,174,133
222,141,174,132
222,141,174,131
222,141,175,130
222,141,175,129
222,141,175,128
222,141,175,127
222,141,176,126
223,141,176,126
223,141,176,126
224,141,176,126
225,141,176,126
225,141,176,126
227,141,172,126
230,141,169,125
232,141,166,125
234,141,162,125
236,141,159,124
238,141,156,124
246,140,144,124
254,139,133,124
262,138,121,124
270,137,110,124
278,136,98,124
289,138,84,124
299,139,65,124
309,140,47,125
316,138,43,128
320,142,43,128
319,143,45,128
318,144,47,127
317,145,49,127
316,146,51,127
315,147,53,127
314,148,55,127
313,149,57,127
312,150,59,127
311,151,62,127
310,152,64,126
309,153,66,126
300,152,73,126
291,151,81,126
281,150,89,126
268,150,109,129
254,150,129,132
234,147,157,138
221,147,177,137
210,146,189,134
205,148,194,132
199,151,199,130
193,153,204,128
197,153,198,126
201,153,192,124
205,153,186,122
209,153,180,120
219,152,164,118
229,151,148,117
238,150,132,116
247,149,121,115
255,149,110,114
264,148,99,113
272,147,88,113
281,146,77,112
278,146,90,112
276,146,102,112
258,145,141,113
249,145,158,108
240,145,176,102
272,144,128,105
298,137,57,121
302,137,57,121
274,144,122,110
234,145,176,122
230,148,181,124
225,152,173,123
220,155,165,122
272,163,53,112
278,161,43,112
236,144,136,129
228,145,172,124
237,145,172,124
257,146,128,120
257,146,121,120
244,147,134,114
230,147,148,109
222,151,158,102
236,150,129,102
264,154,64,104
254,154,74,118
254,166,84,117
225,173,112,129
189,174,168,132
163,169,185,128
152,170,189,125
149,171,178,128
151,169,180,128
160,165,194,137
172,163,206,149
218,159,162,132
280,153,88,120
300,144,81,116
260,124,128,78
250,124,157,73
258,106,157,73
278,85,125,101
310,68,94,126
329,65,94,126
328,67,121,109
326,69,148,92
338,80,148,43
357,54,150,86
378,40,146,136
382,45,154,144
382,62,160,133
377,79,163,133
373,96,166,133
357,108,177,138
342,120,188,142
313,133,201,141
286,136,208,150
257,144,208,150
234,134,213,150
217,136,202,154
217,144,190,146
226,148,180,143
235,152,171,140
244,157,161,137
272,150,126,130
286,146,113,121
310,144,89,114
258,145,128,44
265,142,148,56
284,125,148,84
297,118,126,104
316,113,92,124
343,113,64,125
343,113,82,123
343,113,100,121
346,114,117,117
316,114,161,112
318,117,170,105
334,118,148,100
346,117,89,113
333,116,109,130
308,125,146,122
292,130,166,130
274,130,185,140
263,134,193,144
252,138,201,149
243,141,201,149
234,144,201,149
230,148,201,149
226,153,201,149
226,153,192,149
226,153,182,149
224,157,168,141
222,162,153,133
209,160,162,136
196,158,172,140
196,158,180,140
196,158,189,141
197,157,193,146
198,157,197,150
209,159,197,148
220,162,197,145
228,165,197,145
237,167,197,145
247,166,192,144
257,165,187,143
267,163,183,142
276,162,178,141
286,161,173,140
282,162,176,139
278,163,178,139
273,165,181,139
269,166,184,138
256,169,184,138
242,170,187,138
228,171,191,137
215,172,195,136
201,173,198,136
193,177,198,136
184,177,198,136
184,177,191,134
184,177,184,132
184,170,185,138
184,163,187,145
184,157,189,152
203,155,189,152
222,154,189,152
250,147,180,144
278,141,170,137
306,134,161,129
332,128,161,129
339,116,173,137
359,108,168,138
366,109,163,137
373,110,158,136
359,121,162,131
346,132,166,126
333,142,170,121
311,146,176,130
289,149,181,139
268,153,186,148
242,151,189,148
217,150,192,148
192,149,196,148
192,149,181,148
187,147,184,146
183,146,188,145
189,146,188,145
204,144,189,149
214,142,205,146
237,144,200,146
262,144,196,146
286,145,193,145
310,142,184,133
334,140,176,121
351,137,162,120
367,134,148,118
358,136,152,119
348,138,157,120
339,140,162,120
329,142,166,121
307,142,178,130
285,142,189,138
265,140,192,145
245,138,194,152
236,134,194,149
226,130,193,146
224,132,194,145
221,133,194,144
228,135,198,140
236,137,202,137
254,136,204,136
273,134,205,136
277,135,212,136
281,136,219,137
318,136,184,130
354,136,149,122
358,134,149,122
362,133,149,122
358,136,149,122
354,138,149,122
330,145,168,121
305,151,186,120
284,150,184,123
262,149,181,126
241,146,192,135
220,144,202,144
208,144,198,144
197,145,194,145
199,146,198,145
202,147,201,145
204,148,204,145
206,149,208,145
219,146,203,148
232,142,198,152
248,144,184,146
264,146,170,141
268,146,168,140
272,146,166,138
266,147,178,140
260,147,190,141
260,148,190,142
260,148,190,144
260,149,190,145
263,149,184,145
266,149,178,145
261,151,186,142
256,154,193,140
256,155,193,148
258,156,192,146
260,157,191,144
262,158,190,142
265,158,186,142
268,158,181,142
270,158,177,142
272,158,173,143
274,158,169,144
280,158,160,146
285,158,152,148
290,158,146,148
294,158,141,148
291,158,153,146
288,158,164,144
285,158,176,142
278,158,189,138
278,157,186,140
278,157,182,142
305,158,141,141
305,158,146,141
305,159,150,140
305,159,155,140
305,159,160,140
296,160,171,141
286,161,182,142
285,161,183,142
283,162,184,142
281,163,184,141
280,163,185,141
280,163,184,141
280,163,183,141
280,163,182,141
280,163,181,141
277,163,180,141
274,163,178,141
271,163,177,141
268,163,176,141
264,163,176,141
261,163,176,141
258,162,176,141
254,162,176,141
249,163,177,141
243,163,178,141
237,163,180,141
233,166,180,141
228,169,180,141
224,171,180,141
224,171,179,140
224,171,177,140
224,171,176,139
224,171,175,139
224,171,174,138
226,169,176,140
229,166,177,142
231,165,178,143
234,164,180,143
236,163,181,143
239,162,182,143
241,161,184,144
241,161,190,144
241,161,197,144
252,162,185,140
262,163,173,136
272,165,158,136
282,166,142,136
297,167,128,136
312,167,114,136
317,161,122,136
322,154,130,136
326,155,148,132
329,155,165,129
326,153,174,128
324,150,182,128
331,146,174,129
338,142,166,130
345,143,152,132
353,144,138,133
345,144,149,135
338,145,160,137
325,145,171,138
312,145,182,140
296,146,192,140
280,146,201,140
272,148,201,140
265,150,201,140
264,152,195,138
262,154,189,137
259,155,189,137
256,155,189,137
253,151,190,142
250,146,192,146
250,148,192,146
250,150,192,146
250,152,192,146
250,154,192,146
250,156,193,147
250,157,194,147
250,159,196,147
250,161,197,148
250,162,197,148
250,163,197,148
250,165,197,148
250,166,197,148
241,166,205,149
232,166,213,150
230,162,211,155
229,158,209,160
226,158,209,160
222,158,209,160
219,158,209,160
216,158,209,160
210,155,215,162
203,152,221,165
197,149,227,168
193,150,225,168
188,151,222,168
192,151,215,168
196,151,208,168
200,151,200,168
204,151,193,168
208,151,186,168
212,151,178,168
212,151,173,168
212,151,168,168
208,154,176,170
204,157,185,172
193,161,202,170
183,165,218,169
171,166,231,169
159,167,245,169
149,169,241,166
140,171,237,164
133,169,241,165
127,167,245,166
129,164,245,168
131,160,245,170
134,156,245,172
136,153,245,174
147,149,239,174
157,146,233,174
167,144,233,174
180,144,218,173
201,146,194,166
222,147,169,158
230,147,169,158
237,146,169,158
242,146,169,158
246,146,169,158
241,152,177,157
236,158,185,156
227,159,193,162
218,159,201,169
208,165,208,170
197,170,216,170
193,174,213,168
188,178,210,165
178,179,209,168
168,179,208,170
163,181,208,170
159,183,208,170
152,183,214,170
145,183,221,170
149,183,222,169
152,183,224,168
155,183,226,166
159,183,227,165
168,184,229,164
177,185,231,164
191,181,228,166
205,178,225,168
216,175,227,168
226,173,229,169
242,171,219,168
257,170,210,166
260,172,211,162
262,174,212,158
256,174,213,159
250,174,215,159
244,174,217,159
238,174,218,160
230,175,218,160
222,175,217,161
208,179,221,162
193,183,225,162
189,184,212,162
184,185,200,161
175,188,198,161
165,191,197,161
155,194,197,161
144,197,197,161
141,197,197,161
137,197,197,161
142,196,197,161
146,196,197,161
151,195,197,161
166,197,202,159
182,199,208,157
197,201,213,156
225,197,213,156
247,190,209,153
269,183,206,151
292,175,202,149
316,172,185,142
339,169,168,136
346,165,162,132
353,162,157,128
343,165,164,130
333,169,172,132
316,176,179,128
298,183,186,125
278,185,183,130
258,187,180,136
233,188,181,140
208,189,182,145
184,189,181,141
160,190,180,137
143,188,166,132
127,186,153,126
119,185,145,128
111,183,137,130
107,185,142,130
104,186,148,130
107,179,149,135
122,183,159,136
137,187,168,137
152,191,178,138
180,195,178,138
197,193,204,138
228,191,204,138
273,183,189,134
298,166,197,142
330,161,160,129
354,145,164,133
371,136,160,132
389,128,157,132
387,124,164,133
385,120,170,134
383,126,160,130
382,133,150,126
353,144,160,128
324,155,170,129
292,165,173,132
260,175,176,134
230,179,188,140
201,182,200,146
176,190,198,140
151,198,197,134
130,194,192,137
109,190,188,140
97,189,188,140
104,194,176,132
95,191,176,132
96,190,178,135
98,189,181,138
99,187,199,135
103,186,214,138
