466,124,40,63
468,123,40,63
470,123,39,62
471,122,39,62
473,122,38,62
475,121,38,61
477,120,38,61
478,120,37,61
480,119,37,60
482,119,37,60
483,118,36,60
484,118,36,60
485,118,35,60
486,118,35,60
487,118,34,60
488,118,34,61
489,118,33,61
490,118,33,61
491,118,33,61
492,117,32,61
492,117,32,61
493,116,32,62
493,115,32,62
494,114,32,62
494,113,32,63
494,112,31,63
495,111,31,63
495,110,31,64
496,109,31,64
496,109,31,64
497,108,30,64
497,108,30,65
498,108,29,65
498,107,28,65
499,107,28,65
500,107,27,65
500,106,26,65
501,106,26,65
501,106,25,65
502,105,24,65
502,105,25,64
502,105,26,62
502,105,27,60
505,105,26,61
507,106,25,61
508,106,21,62
510,106,21,63
510,107,20,55
510,107,19,56
493,109,21,58
481,108,21,58
459,109,21,59
441,108,21,59
426,106,21,54
407,109,21,54
387,108,21,56
392,107,21,57
396,105,21,59
400,104,21,61
404,103,21,63
398,103,21,63
392,103,22,63
378,103,22,63
363,103,22,63
348,101,22,63
333,103,22,63
320,102,23,62
317,102,23,62
317,101,23,62
317,101,23,62
317,101,24,62
317,100,24,61
317,100,24,60
318,100,25,60
318,100,25,59
318,100,25,59
318,99,26,58
318,99,26,57
319,99,26,57
319,96,27,59
319,93,26,62
320,93,26,63
320,97,26,59
321,97,28,58
316,92,25,55
298,92,25,55
280,92,25,55
262,93,25,55
245,93,25,55
227,93,25,55
216,93,24,53
214,93,25,54
214,93,25,54
215,94,25,55
215,94,25,55
216,94,25,56
216,94,25,56
217,94,25,57
217,94,25,57
218,94,25,58
218,94,25,58
219,94,25,57
219,94,25,57
219,94,25,57
220,94,24,57
220,94,24,57
220,94,24,57
221,94,24,57
221,94,24,57
221,94,23,57
222,94,23,56
223,94,23,56
224,94,23,56
225,94,23,56
225,93,23,55
226,93,23,55
227,93,23,55
226,93,23,55
225,94,23,55
225,94,23,54
224,93,23,54
224,90,23,55
222,90,23,55
224,90,23,55
225,92,23,53
199,91,23,53
169,91,23,53
130,92,23,54
112,90,23,54
117,91,23,54
118,91,23,55
121,89,24,55
123,89,24,55
125,90,24,55
125,88,24,55
128,87,24,56
129,89,24,56
127,97,24,56
133,115,24,56
139,133,24,57
146,156,24,57
154,156,24,57
159,153,24,57
168,153,24,57
176,171,24,57
188,198,24,57
198,219,21,52
209,217,20,54
219,216,19,55
222,215,24,57
230,215,24,56
238,215,24,55
246,215,24,54
253,215,24,53
261,215,24,52
268,215,24,52
276,215,24,52
285,214,24,53
294,214,24,53
302,214,24,53
311,214,24,53
319,214,24,52
328,214,23,51
337,214,23,51
345,214,22,50
353,213,22,50
360,212,22,50
367,211,22,50
374,209,22,50
381,208,22,50
386,208,23,50
392,208,24,49
397,208,24,49
402,208,25,49
408,208,25,49
412,208,25,49
416,207,25,49
420,207,25,49
424,207,25,49
429,206,25,49
432,205,25,49
436,205,25,49
440,204,25,49
444,203,25,49
447,203,24,49
451,202,23,49
454,201,22,48
457,201,21,48
461,200,20,48
464,199,19,48
465,199,19,48
465,199,19,48
466,199,20,49
466,199,20,49
467,199,20,49
467,199,20,50
468,199,20,50
468,199,21,50
469,198,21,51
470,198,21,51
470,198,21,50
471,197,20,49
472,197,20,48
473,196,19,47
474,196,19,46
475,195,18,45
476,195,18,44
477,194,18,43
478,193,17,42
478,193,17,41
479,193,16,40
479,193,16,39
482,193,16,39
484,192,16,38
487,192,16,37
491,191,15,36
495,191,15,36
500,190,15,35
504,190,15,34
508,190,14,33
514,189,14,34
520,188,14,34
526,188,14,34
530,187,14,35
534,187,14,35
538,186,14,35
541,186,14,36
545,185,14,36
549,185,13,36
553,184,13,37
556,184,13,37
559,184,14,37
562,184,14,37
565,184,14,37
568,183,14,37
571,183,14,37
574,183,14,37
578,183,14,37
581,183,14,38
584,183,14,38
586,182,15,38
587,182,16,39
589,181,16,40
591,181,17,40
593,180,17,41
594,180,18,42
596,179,18,42
598,178,19,43
600,178,19,44
602,177,20,44
603,177,19,44
604,177,18,44
606,176,16,43
607,176,15,43
608,176,14,42
608,176,14,42
607,175,15,41
607,175,16,41
