661,326,20,51
661,326,20,51
660,326,20,51
660,326,20,51
659,326,20,51
659,326,20,51
658,326,20,51
658,326,20,51
658,326,20,51
658,326,20,51
658,326,20,51
658,326,20,51
658,325,20,51
658,325,20,51
658,325,20,51
658,325,19,51
657,325,19,51
657,325,18,51
657,325,18,51
656,325,18,51
656,326,18,51
656,326,18,51
655,326,18,51
655,326,18,50
655,326,18,50
655,326,18,50
655,326,18,50
655,326,17,50
655,326,17,50
655,326,17,50
655,326,17,50
654,326,17,50
654,326,17,49
654,326,17,49
654,326,17,50
654,326,17,50
653,326,17,50
653,326,17,50
653,326,17,50
653,326,17,50
653,326,17,50
652,326,17,50
652,326,17,50
652,326,17,50
652,326,17,50
652,326,17,50
651,326,17,50
651,326,17,50
651,326,17,50
651,326,17,50
651,326,17,50
651,326,17,50
651,326,17,50
651,325,17,50
651,325,17,50
651,325,17,50
650,325,18,50
649,325,18,51
648,325,19,51
647,325,20,51
647,325,21,51
646,325,22,51
645,325,22,51
644,325,23,52
643,325,24,52
643,325,25,52
642,325,26,52
642,325,26,52
642,325,26,52
641,326,25,52
641,326,25,51
641,326,25,51
641,327,25,51
641,327,25,51
641,327,25,50
641,327,25,50
640,327,26,50
640,327,26,50
640,328,26,50
639,328,27,50
639,328,27,50
638,328,27,50
638,328,28,50
638,328,28,50
637,328,28,50
637,328,29,50
636,328,29,50
636,328,29,50
636,328,30,50
635,328,30,50
635,328,30,50
634,328,31,50
634,328,31,51
634,328,31,51
633,328,32,51
633,328,32,51
633,328,32,51
633,328,31,51
633,328,31,51
633,328,31,51
633,328,30,51
634,328,30,52
634,328,30,52
634,328,30,52
633,328,30,52
633,328,30,52
633,328,30,52
633,328,30,52
633,328,30,52
633,329,30,52
633,329,30,52
633,329,30,52
633,329,30,52
633,329,30,52
633,329,30,52
633,329,30,52
632,329,30,52
632,329,30,52
632,329,30,52
632,329,30,52
632,329,30,52
632,329,30,52
632,329,30,52
632,329,30,52
632,330,30,52
632,330,30,52
632,330,30,52
632,330,30,52
631,330,30,52
631,330,30,52
631,330,30,52
631,330,30,52
631,330,30,52
631,330,30,52
631,330,30,52
630,331,30,52
630,331,30,52
630,331,30,52
630,331,30,52
630,331,30,52
630,331,30,52
630,331,30,52
630,331,30,52
630,331,30,52
630,331,30,52
630,331,30,52
630,331,30,52
630,331,30,52
630,331,30,52
630,331,30,52
630,331,30,52
630,331,30,52
630,331,30,52
629,331,30,52
629,331,30,52
629,331,30,52
628,331,30,52
628,331,30,52
628,332,30,52
628,332,30,52
627,332,30,52
627,332,30,52
627,332,30,52
626,332,30,52
626,332,30,52
626,332,30,52
626,332,30,52
625,332,30,52
625,332,30,52
625,333,30,52
624,333,30,52
624,333,30,52
624,333,30,52
624,333,30,52
623,333,30,52
623,333,30,52
623,333,30,52
623,333,30,52
623,333,29,52
623,333,29,53
623,332,29,53
624,332,29,54
624,332,28,54
624,332,28,55
625,331,28,55
625,331,27,56
625,331,27,56
625,330,27,57
624,329,28,57
624,329,28,57
623,328,28,57
622,328,28,57
622,327,28,57
621,326,29,57
620,326,29,58
621,327,29,55
621,329,30,52
620,329,30,55
620,330,30,58
619,331,29,61
621,330,29,61
623,330,29,61
625,329,29,61
627,329,29,61
629,328,29,61
635,329,29,61
642,329,29,61
649,329,29,61
655,330,29,61
663,330,29,61
670,330,29,61
677,330,29,61
676,330,29,61
675,330,29,61
675,330,29,61
674,330,28,62
673,330,28,62
672,330,28,62
672,330,27,62
671,330,27,62
670,330,27,63
669,330,26,63
669,330,26,63
669,329,27,63
670,329,28,63
670,328,29,63
671,327,30,62
672,326,31,62
672,326,32,62
672,326,32,62
671,327,32,61
671,327,31,61
670,328,31,61
670,328,30,61
669,329,30,60
669,330,29,60
668,330,29,60
668,331,29,60
667,331,28,59
667,331,28,60
666,331,27,60
666,331,27,60
666,331,26,60
665,331,26,61
665,331,26,61
665,332,25,61
664,332,25,61
664,331,25,61
664,331,25,61
663,331,25,61
663,331,25,61
662,331,25,61
662,331,25,61
662,331,25,61
661,331,25,61
660,331,26,61
659,332,28,61
659,332,30,60
658,332,31,60
657,333,33,60
656,333,34,59
655,333,34,59
654,333,34,59
653,333,34,59
652,333,34,59
651,333,34,59
651,333,34,60
651,332,34,60
650,332,34,61
650,332,33,61
650,332,33,62
649,331,33,62
649,331,32,62
649,331,33,63
648,331,33,63
647,330,33,64
647,330,33,64
646,330,34,64
645,330,34,64
644,330,34,64
643,330,34,64
642,330,33,63
641,330,33,63
640,330,33,63
639,330,33,63
637,330,33,62
637,330,33,62
636,330,33,62
636,330,33,62
635,330,33,62
635,330,33,62
634,330,33,62
633,330,33,62
633,330,33,62
632,330,33,62
632,330,33,62
631,330,33,62
630,330,33,62
630,330,33,62
629,330,33,62
629,330,33,62
628,330,33,62
627,330,34,63
627,330,34,63
626,331,34,63
626,331,35,63
625,331,35,63
624,331,36,64
624,331,36,64
623,331,37,64
622,331,37,64
622,331,38,64
621,331,38,65
620,331,39,65
620,332,39,65
619,332,39,65
618,331,39,65
617,331,39,65
616,331,39,65
615,331,39,65
614,331,39,65
613,331,39,65
612,331,39,65
611,331,39,65
610,331,39,65
609,331,39,65
608,331,39,65
608,331,39,65
607,332,38,65
606,332,38,65
606,332,38,65
605,333,38,65
604,333,38,65
604,333,37,65
603,333,37,65
602,334,37,64
602,334,37,64
601,334,36,64
600,334,36,64
599,334,36,64
597,335,36,64
596,335,36,64
595,335,36,64
594,335,36,64
593,335,36,64
592,335,36,64
590,335,36,64
589,335,36,64
588,335,36,64
587,336,36,64
586,336,36,64
585,336,36,64
585,336,36,64
584,336,36,64
583,336,36,64
582,336,36,64
582,336,36,64
581,336,36,64
580,336,36,64
580,336,36,64
579,336,36,64
578,336,36,64
577,336,36,64
577,337,36,64
576,337,36,64
575,337,36,64
574,337,36,64
574,338,36,64
573,338,36,64
572,338,36,64
572,338,36,64
571,338,36,64
570,338,36,64
570,338,36,64
569,338,36,64
568,338,36,64
568,338,36,64
567,338,36,64
566,338,36,64
565,338,36,64
565,338,36,64
564,338,36,64
563,338,36,64
562,338,36,64
561,338,36,64
560,338,36,64
560,337,36,65
559,337,36,66
558,337,36,67
558,337,36,68
557,337,35,69
556,337,35,70
556,337,35,71
555,337,35,72
554,337,34,73
554,337,34,73
554,337,34,73
553,337,34,73
553,337,34,73
553,337,34,73
552,337,34,73
552,337,34,73
552,338,34,73
551,338,34,73
550,338,34,73
549,339,34,73
548,339,34,73
547,340,34,73
546,340,34,73
545,340,34,73
544,341,34,73
543,341,34,73
542,342,34,73
540,342,36,73
538,342,37,73
536,342,38,73
534,342,39,73
533,342,40,73
531,342,41,73
529,342,42,73
529,341,42,73
528,341,41,73
528,341,40,73
527,341,40,73
527,341,39,73
527,341,38,73
526,340,37,73
526,340,37,73
525,340,36,73
525,340,35,73
525,340,35,73
524,340,34,73
524,340,33,73
523,340,32,73
523,340,31,73
523,340,31,73
523,341,30,74
522,341,29,74
521,341,30,74
519,341,31,74
517,341,32,75
516,341,33,75
514,340,33,75
512,340,34,75
510,340,35,76
509,337,35,76
508,335,35,76
507,332,35,76
506,329,35,76
505,326,35,76
504,326,36,76
502,326,37,76
501,326,37,75
499,326,38,75
498,326,39,75
496,326,39,75
495,326,40,75
493,326,41,75
492,326,42,75
490,326,42,75
490,326,42,75
490,326,42,75
490,326,41,74
490,326,41,74
490,326,41,74
490,326,40,74
490,326,40,73
490,326,40,73
490,326,39,73
490,326,39,73
490,326,39,72
490,326,38,72
490,326,38,72
490,326,38,72
490,326,38,72
490,326,38,72
490,326,38,72
489,326,39,72
489,326,39,72
489,326,39,72
489,326,39,73
488,326,39,73
488,326,40,73
488,326,40,73
488,326,40,73
487,326,40,73
487,326,41,73
487,326,41,73
487,327,41,74
486,327,41,74
486,327,41,74
486,327,42,74
486,327,42,74
485,327,42,74
485,327,42,74
485,327,42,75
485,327,43,75
484,327,43,75
484,327,43,75
484,327,43,75
484,327,44,75
483,327,44,75
483,327,44,75
483,328,44,76
483,328,44,76
483,328,44,76
483,328,44,76
483,328,44,77
483,328,44,77
483,328,44,78
483,328,43,78
483,328,43,79
483,328,43,79
483,328,43,79
483,328,43,80
483,328,43,80
483,328,43,81
483,328,42,81
482,328,42,81
482,329,42,81
482,329,42,81
482,330,42,81
482,330,42,81
482,331,42,81
482,331,42,81
482,332,42,81
482,332,42,81
481,332,42,81
481,332,41,81
480,332,40,81
480,332,39,81
479,332,38,81
478,332,37,81
478,332,37,81
477,332,36,81
477,332,36,81
476,333,36,81
476,333,35,81
475,333,35,81
475,333,35,81
475,333,35,81
474,334,35,81
474,334,35,81
473,334,35,82
473,334,35,82
472,334,35,82
472,335,35,82
471,335,35,82
471,335,34,82
471,335,34,82
470,335,34,82
470,335,34,82
469,336,34,82
469,336,34,82
468,336,34,82
468,336,34,82
469,336,31,81
471,336,28,79
472,336,25,77
474,336,22,76
473,337,22,76
472,337,22,76
470,337,22,76
469,338,22,76
468,338,22,76
467,339,22,76
466,339,22,76
465,339,23,76
465,339,24,76
465,339,25,76
464,339,26,76
464,339,27,76
463,339,28,76
463,339,29,76
462,340,30,76
462,340,31,76
462,340,32,76
461,340,33,76
461,340,34,76
460,340,35,76
460,340,36,76
459,340,37,76
459,340,38,76
459,340,39,76
459,340,39,76
459,340,38,76
460,340,38,76
460,340,38,76
460,340,37,76
460,340,37,76
461,340,37,76
461,340,37,76
461,340,36,76
462,340,36,76
462,340,36,76
462,340,35,76
463,340,35,76
463,340,35,76
463,340,34,76
464,340,34,76
464,340,34,76
464,340,33,76
465,340,33,76
465,340,33,76
465,340,32,76
466,340,33,76
466,340,33,75
467,340,33,75
467,340,34,75
468,340,34,75
468,340,34,75
469,340,35,75
469,340,35,75
470,340,35,75
471,340,34,75
472,340,34,75
472,340,34,75
473,340,33,75
474,340,33,75
475,340,33,75
475,340,32,75
476,340,32,75
477,340,32,75
478,340,31,75
479,340,31,75
478,339,31,75
478,339,32,75
478,338,32,75
478,337,32,75
478,336,33,75
478,336,33,75
478,335,33,76
478,334,33,76
478,333,34,76
477,332,34,76
477,332,34,76
477,331,35,76
477,330,35,76
477,329,35,76
477,329,36,76
477,328,36,76
477,327,36,76
477,326,36,76
475,324,36,75
473,322,36,74
471,319,36,73
469,317,36,72
467,315,36,70
466,318,33,71
464,321,31,72
463,323,29,72
461,326,26,73
459,331,28,73
458,335,30,73
456,340,32,73
454,344,34,74
451,342,34,74
449,340,34,74
446,339,34,74
444,337,34,74
441,335,34,74
440,334,34,74
439,333,33,75
438,332,32,75
437,331,32,76
435,332,32,77
434,334,32,78
432,335,32,79
431,337,32,80
428,338,32,79
426,340,31,78
424,341,31,78
422,342,31,77
420,344,31,76
419,344,31,76
418,344,31,77
417,345,31,77
416,345,31,77
415,346,31,77
414,344,31,77
413,343,31,77
412,341,31,77
411,340,31,77
410,338,31,77
409,339,31,77
408,341,31,77
408,342,31,77
407,343,31,77
406,344,31,77
403,344,33,76
399,344,35,76
396,344,37,75
393,344,39,75
389,344,41,74
386,344,42,74
386,344,42,74
385,344,42,74
385,345,42,74
384,345,42,74
384,345,42,74
384,345,42,74
383,345,42,74
383,345,42,74
382,345,42,74
382,345,42,74
381,346,42,74
376,343,42,73
370,341,42,72
364,338,41,71
358,336,41,70
352,334,41,70
347,331,41,69
341,329,40,68
335,326,40,67
329,324,40,66
324,321,39,65
318,319,39,65
312,317,39,64
306,314,38,63
307,314,38,63
307,315,38,63
307,315,38,63
308,315,38,63
308,315,38,63
311,315,37,63
313,315,36,63
315,315,34,64
318,315,33,64
319,315,32,64
321,314,30,64
322,314,29,64
324,313,28,65
326,313,26,65
326,313,26,65
326,313,26,65
326,313,26,65
327,313,26,65
327,313,26,65
327,313,26,65
327,313,26,65
328,313,26,65
329,313,26,65
330,312,26,65
331,312,26,65
332,312,26,65
334,312,26,65
334,312,27,65
334,312,28,65
334,312,29,64
335,312,30,64
335,312,31,64
335,312,32,64
336,312,33,64
336,312,34,64
336,312,35,63
337,312,36,63
337,312,37,63
337,311,37,63
338,311,36,63
339,311,36,63
339,311,35,63
340,311,34,63
340,310,34,63
341,310,33,63
342,310,33,63
342,310,32,63
342,308,32,63
343,306,32,63
343,305,32,63
343,303,32,63
343,302,32,63
345,302,31,63
346,302,30,63
347,302,28,63
348,302,27,63
348,301,28,63
348,300,28,63
348,300,29,63
348,299,29,63
348,298,30,63
349,298,30,63
350,298,30,63
351,298,30,63
351,297,30,63
352,297,30,63
353,296,30,63
354,296,30,63
355,295,30,63
355,295,30,63
356,294,30,63
357,295,29,63
358,295,28,63
359,295,27,63
360,296,26,62
361,296,29,62
362,295,31,62
363,295,33,62
363,295,35,62
364,295,37,62
366,295,37,62
368,296,38,62
370,296,38,62
372,297,38,62
373,297,38,62
373,297,37,62
374,296,37,62
374,296,37,62
375,296,36,62
376,296,36,62
376,296,35,62
378,296,34,62
381,296,32,62
383,296,31,62
386,296,29,62
388,296,28,62
389,295,28,62
390,295,28,62
390,294,28,62
391,294,28,62
392,293,28,62
393,293,28,62
394,293,28,62
395,292,28,62
395,292,28,62
396,292,28,62
396,292,28,62
397,292,28,62
397,292,28,62
398,292,28,62
398,292,28,62
399,293,28,62
399,293,28,62
400,293,28,62
400,293,28,62
401,293,27,62
402,293,27,62
404,292,27,62
405,292,26,62
406,292,26,62
407,292,26,62
408,292,27,62
409,292,28,61
410,293,29,60
411,293,31,60
412,294,32,59
413,294,31,59
413,294,31,59
414,294,30,59
414,294,30,59
415,294,29,58
415,294,28,58
416,294,28,58
416,294,27,58
417,294,27,58
418,294,26,58
418,294,26,58
419,294,25,58
418,293,23,59
418,292,21,60
417,291,20,61
417,290,18,62
413,292,18,62
410,294,18,62
407,296,18,62
407,294,18,62
407,291,19,61
407,289,20,61
407,287,20,61
407,285,21,61
408,283,21,61
409,282,21,61
410,280,21,61
411,278,21,61
412,276,21,61
413,276,22,61
414,275,22,61
416,274,23,61
417,273,23,60
418,272,24,60
420,274,24,60
423,276,24,60
425,277,24,60
428,279,24,60
428,279,24,60
428,278,24,60
429,278,24,60
429,277,24,60
429,277,24,60
429,276,24,60
429,276,24,60
429,276,24,60
429,275,24,60
429,275,24,60
429,275,24,60
429,274,24,60
429,274,24,61
429,274,24,61
429,273,24,61
429,273,24,61
429,273,24,61
429,272,24,61
429,272,23,61
429,272,23,61
429,271,23,61
429,271,23,61
429,271,23,61
429,270,23,61
429,270,23,61
429,269,23,61
429,269,23,61
429,269,23,61
429,268,23,61
429,268,23,61
429,268,23,61
429,267,23,61
429,267,23,61
429,267,23,61
429,266,23,61
429,267,23,61
429,267,23,61
429,268,23,61
429,269,23,61
429,269,23,61
429,270,23,61
429,270,23,61
429,271,23,61
429,271,23,61
429,272,23,61
429,273,23,61
428,274,23,61
427,275,23,61
427,276,22,60
426,277,22,60
426,278,22,60
425,280,22,60
425,281,22,60
424,282,21,60
423,283,21,60
423,286,20,61
423,288,20,62
423,291,19,64
421,290,20,64
419,290,21,63
418,289,21,63
416,288,22,63
414,288,23,63
412,287,24,63
410,286,24,63
408,286,25,63
406,285,26,62
404,284,26,62
401,280,26,62
398,276,26,62
395,272,26,62
394,272,26,62
394,271,26,62
393,271,26,62
393,271,26,62
392,270,26,62
392,270,26,62
391,271,27,62
389,272,28,63
388,273,28,63
386,274,29,63
385,275,29,63
382,274,29,63
379,274,28,62
377,273,28,62
374,272,28,62
371,272,27,62
372,272,27,62
372,272,27,62
372,272,27,62
372,272,27,62
372,272,27,62
373,272,27,62
373,272,27,62
373,272,27,62
373,272,27,62
374,272,27,62
374,272,27,62
374,272,27,62
374,272,27,62
374,272,27,62
375,272,27,62
375,272,27,62
375,273,27,62
375,273,27,62
375,273,27,62
376,273,27,62
376,273,27,62
376,273,27,62
376,273,27,62
377,273,27,62
377,273,27,62
377,273,27,62
377,273,27,62
377,273,27,62
378,273,27,62
379,272,27,62
380,272,27,62
380,272,27,62
381,271,27,62
382,271,27,62
383,270,27,62
383,271,27,62
383,271,28,62
384,271,28,62
384,272,28,63
384,272,28,63
385,272,28,63
385,272,29,63
385,273,29,63
385,273,29,64
387,273,29,64
388,273,30,65
389,273,30,65
390,273,30,65
391,273,30,66
392,273,30,66
393,273,31,66
394,273,31,66
396,273,31,66
397,273,32,65
398,272,32,65
399,272,32,65
400,272,32,65
401,272,32,65
401,272,32,65
402,272,32,65
403,272,32,65
403,272,32,65
404,272,32,65
405,272,32,65
404,273,34,65
404,273,35,65
404,273,36,66
404,273,37,66
404,273,38,66
403,274,39,66
406,273,37,66
408,273,36,67
410,273,34,67
412,272,33,67
415,272,31,67
417,271,29,67
419,271,28,67
420,270,29,68
422,269,30,68
423,268,31,69
424,267,32,69
425,266,33,70
426,264,34,70
422,265,34,70
417,265,34,70
413,265,34,70
409,265,34,70
405,266,34,70
402,265,34,70
399,264,34,70
396,263,34,70
393,262,34,70
389,264,34,70
386,265,34,70
382,266,34,70
378,268,34,70
375,269,34,70
375,269,34,70
375,269,35,70
376,269,35,70
376,269,35,70
376,269,35,70
377,269,35,69
377,269,35,69
377,269,35,69
377,269,35,69
378,269,35,69
378,268,35,69
378,268,35,69
378,268,35,69
379,267,35,69
379,267,35,69
379,267,35,69
379,266,35,69
380,267,35,69
382,267,35,69
383,268,35,69
384,269,35,69
385,269,35,69
385,269,35,69
386,269,35,69
387,269,35,69
388,269,35,69
388,269,35,69
389,269,35,69
390,269,35,69
391,270,35,69
391,270,35,69
392,270,35,69
393,270,35,69
393,269,38,69
394,269,41,69
395,269,44,70
395,268,47,70
397,268,45,70
399,268,44,70
401,268,42,71
403,267,40,71
405,267,38,72
406,268,37,72
406,268,35,72
406,268,34,72
407,269,32,72
407,269,30,72
408,270,29,72
408,270,27,72
406,273,30,72
403,276,34,72
401,279,37,72
399,282,40,72
399,280,40,72
399,278,40,72
399,276,40,72
399,275,40,72
399,273,40,72
398,273,35,72
396,274,30,72
395,274,25,72
395,274,29,72
395,274,32,73
395,274,35,73
395,274,39,73
395,274,42,73
395,274,46,73
398,273,44,73
400,271,41,73
403,270,39,73
405,269,37,73
407,268,35,73
410,267,33,73
412,266,31,74
415,264,28,74
417,264,29,75
420,264,30,76
422,263,31,77
421,265,36,76
421,266,41,76
420,268,46,75
420,269,51,75
423,269,48,75
427,269,45,75
430,268,42,75
434,268,39,75
437,268,36,75
441,267,34,75
444,266,32,76
447,265,30,76
449,263,30,77
452,261,31,78
454,259,32,79
454,260,35,78
454,261,39,77
454,262,43,76
454,263,46,75
454,264,50,74
458,264,46,74
462,264,42,73
466,264,38,73
470,264,34,72
474,264,30,72
476,264,32,72
477,264,34,72
479,263,35,72
481,263,37,72
483,263,39,72
484,262,40,72
486,262,42,72
488,262,44,72
490,262,43,72
492,262,42,73
494,263,41,73
496,263,40,73
500,262,37,73
504,262,35,74
509,261,33,74
513,260,30,74
514,260,32,74
515,260,34,74
515,260,36,74
516,260,37,74
517,260,39,73
518,260,41,73
518,260,42,73
519,261,42,73
520,261,42,73
520,261,42,73
521,262,42,73
525,262,40,73
529,262,37,74
533,262,34,74
536,262,31,74
537,261,33,74
538,261,34,73
539,260,36,73
540,260,37,73
541,260,39,72
542,259,40,72
543,259,42,71
544,258,43,71
546,258,42,72
549,258,41,72
551,258,41,72
553,258,40,73
556,258,39,73
558,257,38,74
561,257,37,74
563,257,36,75
566,257,36,75
568,257,35,76
571,257,34,76
573,256,33,77
574,256,34,77
575,256,36,77
577,256,37,77
578,256,38,77
579,256,39,77
580,256,41,76
582,256,42,76
584,256,40,76
587,255,38,76
590,255,37,76
593,255,35,76
596,255,33,76
599,255,31,76
602,254,30,76
602,255,32,76
603,255,35,76
604,255,38,76
604,255,40,75
605,255,43,75
606,255,46,75
606,256,48,75
607,256,51,74
610,255,49,74
613,255,47,75
616,255,45,75
619,255,43,75
622,254,40,75
623,254,40,75
625,254,40,75
627,254,39,76
629,254,39,76
631,254,39,76
633,254,38,76
635,254,38,76
635,255,39,76
636,255,41,76
636,255,43,75
636,256,44,75
637,256,46,75
637,256,47,75
637,256,49,74
640,256,48,75
642,255,46,75
644,254,45,75
647,254,43,75
649,253,42,76
651,252,40,76
654,252,39,76
656,251,37,76
657,251,39,76
659,251,41,77
660,252,42,77
661,252,44,77
662,252,46,77
664,252,48,77
665,252,50,77
666,252,49,77
667,252,48,77
668,252,47,76
670,252,47,76
671,252,46,76
672,252,45,76
673,252,44,75
674,252,43,75
676,252,43,75
677,252,42,75
678,252,41,74
679,252,40,75
680,252,40,75
681,252,39,75
682,252,38,75
683,252,37,75
684,252,37,75
685,252,36,76
686,252,36,76
686,252,36,76
687,252,36,75
687,252,37,75
688,251,37,75
688,251,37,75
689,251,37,75
689,251,38,75
690,251,38,75
690,251,38,75
691,251,38,75
691,253,38,75
692,254,38,74
692,255,37,74
693,257,37,74
693,258,36,73
694,260,36,73
694,256,36,73
694,253,36,73
694,250,36,73
693,246,36,73
693,246,36,73
693,246,37,72
692,245,38,72
692,245,38,72
694,249,38,72
695,253,38,72
697,257,38,72
698,261,38,72
700,265,38,72
700,263,38,72
700,261,38,72
701,260,38,72
701,258,38,72
701,256,38,72
701,254,38,72
702,252,38,72
702,250,38,72
702,250,38,72
703,250,38,72
703,249,38,72
703,249,38,72
704,250,38,71
704,252,38,70
705,253,38,69
705,254,37,68
705,256,37,67
706,256,36,67
707,256,35,67
708,256,34,67
709,256,33,67
709,255,33,67
708,253,33,67
708,251,33,67
708,249,33,67
708,248,33,67
708,248,33,67
708,248,32,68
708,248,31,68
709,248,31,69
709,248,30,69
709,247,30,69
708,247,30,69
708,246,30,69
708,246,30,69
708,246,30,69
708,245,30,69
708,245,30,69
708,245,30,69
708,245,30,69
708,245,30,69
708,245,30,69
708,245,30,69
708,244,30,69
708,244,30,69
708,244,30,69
708,244,30,69
708,244,30,69
708,244,30,69
708,244,30,69
708,244,30,69
708,244,30,69
708,244,30,69
708,243,30,69
707,243,30,69
707,243,30,69
707,243,30,69
707,242,30,69
707,242,30,69
706,242,30,69
706,242,30,69
706,242,30,69
706,241,30,69
706,241,30,69
706,241,30,69
705,241,30,69
705,241,30,69
705,240,30,69
705,240,30,69
705,240,30,69
704,240,30,69
704,240,30,69
704,239,30,69
704,239,30,69
704,239,30,69
704,239,30,69
703,238,30,69
703,239,30,69
703,239,30,69
703,239,30,69
703,239,30,69
703,240,30,69
703,240,30,69
703,240,30,69
703,240,30,69
702,240,30,69
702,241,30,69
702,241,30,69
702,241,30,69
702,241,30,69
702,242,30,69
702,242,30,69
702,242,30,69
702,242,30,69
702,242,30,69
702,243,30,69
701,243,30,69
701,243,30,69
701,243,31,69
701,243,31,69
701,244,31,69
701,244,31,69
701,244,31,69
701,244,31,69
701,244,31,69
701,244,31,69
701,244,31,69
701,244,31,69
701,245,32,69
701,245,32,69
701,245,32,69
701,245,32,69
701,245,32,69
701,245,32,69
701,245,32,69
701,246,32,69
701,246,32,69
701,246,32,69
701,246,32,69
701,246,32,69
701,246,32,69
