573,338,24,60
573,339,24,60
573,340,23,59
573,341,23,59
573,342,22,58
573,342,22,58
573,343,22,57
568,340,24,60
562,342,24,60
556,341,23,57
551,341,23,57
547,342,23,57
542,342,23,57
542,342,23,57
542,342,23,57
541,343,23,57
541,343,23,57
541,343,23,57
540,343,23,57
540,343,23,57
539,343,23,57
539,343,23,57
539,343,23,57
536,343,23,57
532,343,23,57
529,343,23,57
521,345,23,56
520,343,23,56
464,343,23,56
445,344,23,56
426,345,23,56
417,345,23,56
419,343,23,56
420,342,23,56
421,341,23,56
423,341,22,56
424,341,20,56
426,341,19,56
426,342,19,56
426,343,19,56
426,344,19,55
426,345,19,55
426,345,19,55
426,346,19,55
426,346,19,55
426,347,19,55
426,347,19,55
426,348,19,55
426,348,19,55
426,349,19,55
426,349,19,55
426,350,19,55
426,350,20,55
426,350,21,55
426,350,22,55
426,350,22,55
426,350,23,55
426,350,24,55
428,350,23,59
429,350,23,57
430,350,24,55
430,350,24,57
430,350,24,59
430,350,25,59
430,350,25,60
430,350,25,60
430,350,25,60
430,350,26,60
430,350,26,61
430,350,26,61
430,350,27,61
430,350,27,61
430,350,27,62
430,350,27,62
430,350,28,62
430,350,28,63
430,350,28,63
430,350,28,63
430,350,28,63
430,350,28,63
430,350,28,63
430,350,28,63
430,350,28,64
430,350,28,64
430,350,28,64
430,350,28,64
430,350,28,64
430,350,28,64
430,350,28,64
430,350,28,64
430,350,28,64
430,350,28,64
430,350,28,64
430,350,29,64
430,350,29,64
430,350,29,64
430,350,29,64
430,350,29,64
430,350,29,64
430,350,29,64
430,350,30,64
430,350,30,64
430,350,31,64
430,350,31,64
430,350,32,64
430,350,33,64
430,350,32,64
431,351,32,65
432,351,31,66
433,351,31,66
434,352,30,67
434,352,30,67
435,353,29,68
436,353,29,69
436,353,29,69
437,353,30,69
437,353,30,69
437,353,30,69
438,353,31,69
438,353,31,69
438,353,31,69
439,353,31,69
439,354,31,69
439,354,31,69
439,354,31,69
440,354,31,69
440,354,31,69
440,354,31,69
440,354,31,69
441,355,31,69
441,355,31,69
441,355,31,69
441,355,31,69
442,355,31,69
442,355,31,69
442,355,31,69
443,355,31,69
443,356,31,69
443,356,31,69
443,356,31,69
443,356,31,69
443,356,31,69
443,356,31,69
443,356,31,70
443,356,31,70
443,356,31,70
443,356,31,70
443,356,31,71
443,356,31,71
443,356,31,71
443,356,31,71
443,356,31,72
443,356,31,72
443,356,31,72
443,356,31,73
443,356,31,73
443,356,31,73
443,356,31,73
443,356,31,74
443,356,31,72
443,356,31,71
443,346,29,70
435,345,29,70
426,345,29,70
417,345,29,70
416,344,29,70
415,343,29,70
414,342,29,70
414,340,29,69
415,338,29,68
416,336,29,68
417,334,29,67
417,332,29,66
417,332,29,66
417,332,29,67
416,333,29,67
416,333,29,68
416,333,29,68
416,333,29,68
415,333,29,69
415,333,29,69
415,333,29,69
415,333,29,70
414,333,29,70
414,333,29,70
414,333,29,71
414,334,29,71
414,335,29,71
414,336,29,71
414,337,29,71
414,338,29,71
413,338,29,71
413,338,29,71
412,338,29,71
412,337,29,71
411,337,29,71
408,337,29,71
404,337,29,71
401,337,29,71
401,337,29,71
400,336,29,71
399,336,29,70
397,336,29,70
396,337,29,69
395,337,29,69
394,337,29,68
393,337,29,67
393,336,29,69
393,335,29,70
393,334,29,71
393,332,29,72
391,332,29,71
390,332,29,70
389,332,29,70
387,331,29,70
384,330,28,70
382,329,28,71
380,328,28,71
377,327,28,71
377,328,28,71
377,328,28,71
376,329,28,71
372,330,27,70
368,331,27,70
364,332,27,69
363,331,28,69
363,331,28,69
362,331,28,69
362,331,28,69
362,331,28,69
362,331,28,69
361,331,28,69
361,331,28,69
361,331,28,69
360,331,28,69
360,331,28,69
360,331,28,69
360,331,28,69
359,331,28,69
359,331,28,69
359,331,28,69
358,331,28,69
358,331,28,69
358,331,28,69
358,331,28,69
357,331,28,69
357,331,28,69
357,331,28,69
357,331,28,69
357,331,28,69
357,331,28,69
357,331,28,69
357,332,28,69
357,332,28,69
357,332,28,69
357,332,28,69
357,332,28,69
358,332,28,69
358,332,28,69
358,332,28,69
358,332,28,69
358,332,28,69
358,333,28,69
358,333,28,69
358,333,28,69
358,333,28,69
358,333,28,69
359,333,28,69
359,333,28,69
359,333,28,69
359,333,28,69
359,333,28,69
359,334,28,69
359,334,28,69
359,334,28,69
359,334,28,69
359,334,28,69
360,334,28,69
360,334,28,69
360,334,28,69
360,334,28,69
360,335,28,69
360,335,28,69
360,335,28,69
360,335,28,69
360,335,28,69
360,335,28,69
361,335,28,69
361,335,28,69
361,335,28,69
361,335,28,69
361,336,28,69
361,336,28,69
361,335,28,69
361,335,28,69
361,335,28,69
361,335,28,69
362,335,28,69
362,335,28,69
363,335,27,69
364,335,27,69
365,335,27,69
366,335,27,69
366,335,27,69
368,335,27,69
370,335,27,69
372,335,27,69
374,335,27,69
373,336,27,69
373,336,28,69
373,336,28,69
378,336,28,69
383,336,28,69
383,336,29,69
383,336,29,69
383,336,30,69
383,336,34,69
383,336,35,69
383,336,36,69
386,336,36,69
390,336,36,69
392,336,36,69
393,337,35,69
395,337,34,69
396,337,33,68
397,337,32,68
398,337,32,68
399,337,31,68
400,337,30,68
401,337,29,68
403,337,29,68
404,337,28,67
405,337,28,67
406,338,28,67
407,338,28,67
409,338,28,67
410,338,28,67
411,338,28,67
412,338,28,67
413,338,28,67
413,338,28,67
414,338,28,67
414,338,28,67
415,338,28,67
416,338,27,67
417,338,26,67
419,337,25,67
424,337,25,67
430,337,25,67
430,337,25,67
430,337,25,67
431,337,25,67
431,337,25,67
431,337,25,67
432,337,25,67
432,337,25,67
432,337,25,67
433,337,25,67
433,337,25,67
433,337,25,67
434,337,25,67
434,337,25,67
434,337,25,67
434,336,25,67
435,336,25,67
435,336,25,67
435,336,25,67
436,336,25,67
436,336,25,67
436,336,25,67
437,336,25,67
437,336,25,67
437,337,25,67
438,337,25,67
438,337,25,67
438,337,25,67
439,337,25,67
439,337,25,67
439,337,25,67
440,337,25,67
440,337,25,67
440,337,25,67
441,337,25,67
441,337,25,67
441,337,25,67
441,337,25,67
442,337,25,67
442,337,25,67
442,337,25,67
442,337,25,67
442,337,25,67
443,337,25,67
443,337,25,67
443,337,25,67
443,337,25,67
443,337,25,67
444,337,27,67
445,336,29,67
446,335,31,67
446,334,33,67
447,334,25,67
448,332,28,68
449,330,31,69
449,328,33,70
450,326,29,71
449,324,30,71
448,322,31,72
453,322,31,72
454,323,31,71
456,324,30,70
457,324,30,69
458,325,29,67
459,325,28,66
461,326,28,65
462,325,28,65
463,324,28,65
464,323,28,65
465,323,28,65
466,322,28,65
467,321,28,65
468,320,28,65
470,319,28,65
471,318,28,65
472,317,28,65
472,317,28,65
473,317,28,65
473,317,28,65
474,317,28,65
475,317,28,65
475,317,28,65
476,317,28,65
476,317,28,65
477,317,28,65
477,317,28,65
478,317,28,65
483,317,28,65
487,317,28,65
492,317,28,65
492,318,28,65
493,318,28,65
493,318,28,65
494,318,28,65
494,319,28,65
494,319,28,65
494,320,28,65
495,321,28,65
495,321,28,65
495,322,28,65
495,322,28,65
495,322,28,65
495,322,28,65
494,322,28,65
494,322,28,65
493,322,28,65
493,322,28,65
493,322,28,65
492,322,28,65
492,322,28,65
492,322,28,65
491,322,28,65
491,322,28,65
490,322,28,65
492,322,28,65
494,322,28,65
495,322,28,65
493,321,28,65
490,320,28,65
488,319,28,65
485,318,28,65
483,317,28,65
480,316,28,65
478,315,28,65
476,315,28,65
475,316,28,65
473,316,28,65
471,317,28,65
469,317,28,65
467,318,28,65
465,318,28,65
463,318,28,65
461,318,28,65
458,319,28,65
456,319,28,65
454,319,28,65
452,319,28,65
450,320,28,65
448,320,28,65
445,320,28,65
443,321,28,65
441,321,28,65
439,321,28,65
437,321,28,65
434,322,28,65
432,322,28,65
430,322,28,65
428,322,28,65
426,323,28,65
424,323,28,65
421,323,28,65
419,323,28,65
417,324,28,65
415,324,28,65
413,324,28,65
410,324,28,65
408,325,28,65
406,325,28,65
402,325,33,71
401,325,32,71
401,324,31,71
400,324,30,71
399,324,29,71
397,324,29,71
396,324,29,71
395,324,29,72
393,324,29,74
392,325,29,75
390,325,29,76
389,325,32,76
388,325,34,76
386,325,33,76
385,325,31,76
384,325,30,76
383,325,28,76
381,325,27,76
381,325,27,78
381,325,27,79
380,325,28,81
376,325,28,81
376,325,27,79
376,326,25,78
375,326,24,76
373,323,25,76
370,320,27,76
370,322,26,76
369,324,25,76
369,326,24,76
362,326,29,76
360,326,30,76
358,326,32,76
356,326,33,76
355,326,35,76
353,326,36,76
353,326,36,76
354,326,36,76
354,326,36,76
355,326,36,76
355,326,36,76
356,326,36,76
356,326,36,76
356,326,36,76
357,326,36,76
357,326,36,76
358,326,36,76
360,325,35,76
362,325,33,76
363,325,33,76
364,325,33,76
365,324,33,76
366,324,33,76
367,324,33,76
368,324,33,76
369,324,33,76
369,323,33,76
369,322,33,76
369,321,33,76
369,321,33,76
369,320,33,76
369,319,33,76
369,319,33,76
369,318,33,76
369,317,33,76
369,316,33,76
369,316,33,76
369,315,33,76
369,314,33,76
369,314,33,77
369,314,33,77
369,313,33,78
369,313,33,78
369,312,33,79
369,312,33,79
369,311,33,80
373,308,33,80
376,305,33,80
380,303,33,80
384,304,33,80
385,304,33,80
387,305,33,80
389,305,33,80
389,304,33,80
389,303,32,79
389,302,32,79
389,301,32,79
390,300,32,79
390,299,32,79
390,297,32,79
390,296,31,79
391,296,31,79
391,296,31,79
392,296,31,79
396,296,31,79
401,294,31,79
407,290,31,79
408,291,31,78
409,292,31,77
409,293,31,76
410,293,31,76
410,294,31,75
410,292,31,77
411,298,31,79
408,299,31,77
405,301,30,76
402,302,29,74
399,305,31,80
395,304,31,76
392,303,30,74
389,302,29,72
389,298,31,76
390,294,31,76
392,290,31,76
394,286,31,76
396,283,40,74
405,280,36,72
406,279,31,76
399,279,49,76
400,279,49,76
409,279,46,76
417,279,45,76
420,280,45,76
422,280,45,76
419,280,50,72
419,282,46,73
420,283,42,74
410,283,40,73
401,284,39,71
391,285,39,74
386,286,40,75
389,287,40,76
393,288,40,77
397,288,40,77
409,290,41,77
414,290,46,77
414,289,46,77
414,289,46,77
415,288,46,77
406,292,44,75
397,297,41,74
384,301,46,77
378,304,46,74
379,308,41,73
384,313,46,73
391,310,46,74
408,306,46,74
419,303,45,73
431,300,45,72
432,295,50,72
432,293,47,72
432,292,44,72
432,290,41,72
422,295,43,72
412,300,45,72
405,308,40,72
395,311,41,72
392,317,45,72
395,320,41,74
397,324,38,76
406,323,36,75
414,322,35,75
421,320,38,75
428,317,40,75
431,311,38,78
435,308,35,79
435,309,35,76
437,308,35,75
437,306,35,74
442,309,35,72
448,311,33,72
454,314,31,72
457,316,32,74
461,319,33,75
465,319,32,75
470,319,31,75
475,320,31,75
479,320,30,75
483,320,30,75
487,320,30,75
492,320,30,76
497,321,30,76
502,321,30,77
504,321,31,77
506,322,31,77
508,322,31,77
510,322,31,77
509,322,31,78
509,321,31,79
508,321,31,79
507,320,31,80
506,319,31,80
505,319,31,81
503,319,31,81
500,319,31,81
498,319,31,81
494,319,31,81
491,319,31,81
488,319,31,81
484,319,31,81
482,319,31,80
480,320,31,79
478,321,31,79
476,322,31,79
473,322,31,79
471,323,31,79
468,324,31,79
466,325,31,79
463,325,31,79
461,326,31,79
459,327,31,79
457,327,31,79
454,327,32,79
452,326,32,79
449,326,32,79
446,325,33,80
444,325,33,80
441,324,33,80
440,325,33,80
439,325,34,81
438,326,34,81
437,327,34,81
436,329,34,81
435,330,34,82
434,331,34,82
433,332,34,82
432,330,34,83
431,329,34,83
430,327,34,83
428,325,34,83
427,324,34,85
426,322,34,86
426,322,34,86
426,322,34,85
426,322,34,85
426,322,34,85
426,322,34,84
426,322,34,84
426,322,34,84
426,322,34,83
426,322,34,83
426,321,34,83
426,321,34,83
425,320,34,83
425,320,34,83
425,319,34,83
425,319,34,83
425,318,34,83
425,317,34,83
425,319,34,83
425,321,33,82
425,322,33,82
425,324,33,81
425,323,33,81
424,322,33,81
424,322,33,81
424,321,33,81
424,321,33,81
424,320,33,81
424,319,33,81
423,319,33,81
423,319,33,81
423,319,33,81
423,318,33,81
423,318,33,82
423,318,33,82
423,318,33,82
423,318,33,82
423,318,33,82
423,318,33,82
423,318,33,82
423,318,33,82
423,318,33,82
423,318,33,82
422,318,33,81
422,318,33,81
422,318,33,81
422,317,33,81
422,317,33,81
421,317,33,81
420,317,33,81
420,317,33,81
419,317,33,81
419,317,33,81
418,317,33,81
417,317,33,81
417,317,33,81
417,317,33,81
417,317,33,81
417,317,33,81
417,316,33,81
417,316,33,81
416,316,33,81
416,316,33,81
416,315,33,81
416,315,33,81
416,315,33,81
416,315,33,80
415,315,33,80
415,314,34,80
414,312,34,80
414,311,34,80
413,309,35,81
413,308,35,81
412,306,35,81
413,306,35,82
413,305,34,82
413,304,34,83
413,304,34,83
413,303,33,84
414,303,33,85
413,302,35,87
413,301,33,84
413,298,33,84
413,295,33,84
413,292,33,84
412,289,33,83
413,287,33,87
415,288,33,85
416,289,34,84
418,290,34,83
419,291,34,81
425,293,34,81
430,295,35,81
436,297,35,80
442,299,35,80
449,296,36,80
457,293,36,80
461,293,40,79
464,293,43,79
469,294,43,80
476,297,43,80
483,300,43,80
489,308,40,76
492,309,41,78
494,311,43,80
497,311,42,75
500,310,41,76
503,310,41,77
511,311,40,76
519,306,39,76
528,303,39,76
535,300,39,76
542,298,39,76
545,296,39,76
547,294,39,76
554,291,39,76
559,290,37,76
565,288,35,76
571,286,35,76
577,284,39,76
586,287,36,76
591,290,37,76
597,293,37,76
603,296,37,76
609,298,37,76
614,301,38,76
617,300,37,76
620,300,37,76
623,299,37,76
625,298,36,76
627,297,36,75
629,296,36,75
631,295,35,75
633,295,35,75
632,294,34,75
630,293,34,75
629,292,34,75
630,291,34,75
626,296,34,75
623,301,34,75
622,306,34,75
622,311,35,76
621,317,35,76
620,322,35,76
620,326,35,76
619,327,35,76
617,329,35,76
615,330,35,76
615,329,35,76
614,328,35,76
613,329,35,76
611,330,35,76
610,331,35,76
607,330,35,77
599,327,35,80
590,329,34,79
582,331,34,78
573,333,34,77
564,331,34,79
555,335,34,76
554,338,34,76
554,341,34,76
554,345,34,76
555,350,34,76
556,354,34,76
557,358,34,76
560,357,34,76
562,356,34,76
565,355,34,76
570,351,34,76
576,347,34,76
581,343,34,76
587,338,34,76
587,336,34,76
586,334,34,77
586,331,34,77
586,332,34,77
586,334,34,77
586,335,34,77
586,337,34,77
586,335,34,77
586,333,34,77
587,331,34,77
590,326,34,77
594,322,34,77
597,317,34,77
601,312,34,77
604,303,30,77
603,304,30,77
602,305,30,77
601,307,30,77
599,312,30,77
597,317,30,77
597,324,30,77
597,330,30,77
605,334,30,77
613,337,30,77
620,341,30,77
621,339,30,79
622,337,30,80
622,335,30,81
623,334,30,82
623,335,30,82
623,336,30,82
623,338,30,82
623,339,30,82
623,341,30,82
623,342,30,82
622,341,30,82
621,339,30,82
620,338,30,82
615,334,30,82
609,330,30,82
603,326,30,82
597,325,30,82
591,324,30,82
585,322,30,82
579,321,30,82
573,320,30,82
568,323,30,82
563,326,30,82
557,329,30,82
555,329,30,82
552,330,30,82
550,330,30,82
547,331,30,82
544,331,30,82
541,331,30,82
537,331,30,82
534,331,30,82
533,330,30,82
533,329,30,82
533,327,30,82
533,326,30,82
532,325,30,82
531,325,30,82
530,325,30,82
529,325,30,82
528,325,30,82
526,325,30,82
526,325,30,82
526,325,30,82
526,325,30,82
526,325,30,82
525,325,30,82
525,325,30,82
525,325,30,82
525,325,30,82
525,326,30,82
525,326,30,82
526,326,30,82
526,327,30,82
526,327,30,82
526,328,30,82
526,328,30,82
526,328,30,82
526,329,30,82
526,329,30,82
527,330,30,82
527,330,30,82
527,330,30,82
527,331,30,82
527,331,30,82
527,332,30,82
527,332,30,82
528,332,30,82
528,332,30,83
528,331,30,83
528,331,30,84
528,330,30,84
528,330,30,85
528,329,30,85
528,329,30,86
527,329,30,86
526,329,30,86
525,329,30,86
525,329,30,86
524,329,30,86
523,329,30,86
523,329,30,86
522,329,30,86
521,329,30,86
521,328,30,86
522,328,30,86
522,328,30,86
522,328,30,86
522,328,30,86
522,328,30,86
522,328,30,86
522,327,30,86
523,327,30,86
522,327,30,86
522,327,30,86
522,326,30,86
522,326,30,86
522,326,30,86
522,325,30,86
521,325,30,86
521,325,30,86
521,325,30,86
521,325,30,86
521,325,30,85
521,326,30,85
521,326,30,85
521,326,30,85
521,326,30,85
521,326,30,85
521,326,30,84
521,327,30,84
521,327,30,84
521,327,30,84
521,327,30,84
521,327,30,84
521,327,30,83
521,327,30,83
521,326,30,83
521,325,30,83
521,324,30,83
520,323,30,83
520,322,30,83
520,321,29,84
519,319,28,85
519,318,27,86
518,318,28,85
518,318,29,84
518,319,30,83
520,319,29,83
522,320,28,83
524,320,27,83
526,321,25,83
528,321,24,83
528,321,24,83
529,321,24,83
529,321,24,83
530,321,24,83
530,321,23,83
530,321,24,83
531,315,24,86
532,309,24,88
531,307,24,91
530,306,24,93
529,305,24,96
529,303,24,93
529,303,24,93
529,303,24,93
529,303,24,93
529,303,24,93
529,303,24,93
529,303,24,93
529,303,24,93
529,303,24,93
529,303,24,93
529,303,24,93
529,303,24,93
529,303,24,93
529,303,24,93
529,303,24,93
529,303,24,93
529,303,24,93
529,303,24,93
529,303,24,93
529,303,24,93
529,303,24,93
529,303,24,93
529,303,24,93
529,303,24,93
529,303,24,93
529,303,24,93
529,303,24,93
529,303,24,93
529,303,24,93
529,304,24,93
529,304,24,93
529,304,24,93
529,304,24,93
529,304,24,93
529,304,24,93
529,304,24,93
529,304,24,93
531,304,24,93
532,304,24,93
533,305,24,93
534,305,24,93
534,306,24,93
535,307,24,93
536,308,24,93
536,309,24,93
536,309,24,93
536,308,24,93
536,308,24,93
535,308,24,93
535,308,24,93
535,308,24,93
535,307,24,93
535,307,24,93
535,307,24,93
534,307,24,93
534,307,24,93
534,307,24,93
534,306,24,93
534,306,24,93
533,306,24,93
533,306,24,93
533,306,24,93
533,305,24,93
533,305,24,93
532,305,24,93
531,304,24,93
530,304,24,93
529,303,24,93
527,303,24,93
524,304,24,93
521,304,24,93
519,304,24,93
516,304,24,93
513,304,24,93
510,304,24,92
508,303,24,92
506,302,24,92
504,302,24,92
502,301,24,92
500,300,24,92
493,301,24,92
493,303,24,92
491,303,24,92
490,303,24,92
488,303,24,92
487,303,24,92
484,305,26,91
482,307,28,90
479,309,30,88
477,311,32,87
474,313,34,86
472,315,36,85
469,315,37,85
466,316,37,85
463,316,37,85
461,316,38,85
460,316,36,85
460,316,35,85
459,315,33,85
459,315,32,85
458,315,30,85
457,315,31,85
455,316,33,85
454,316,34,85
452,316,35,85
450,316,33,85
449,316,30,85
447,316,30,85
445,316,31,85
443,316,31,85
443,316,31,85
444,316,31,85
444,316,31,85
444,316,31,85
444,316,31,85
444,316,31,85
444,316,31,85
444,316,31,85
444,316,30,85
444,316,30,85
445,316,30,85
445,316,30,85
445,316,30,85
445,316,30,85
445,316,30,85
445,316,30,85
445,316,30,85
445,316,29,85
445,316,29,85
446,316,29,85
446,316,29,85
446,316,29,85
446,315,29,84
447,315,29,83
447,314,29,82
447,313,29,81
448,312,29,80
448,311,29,79
448,311,29,79
449,311,29,79
449,312,28,79
449,312,28,79
449,312,28,79
450,312,28,79
450,312,27,79
450,312,27,79
450,312,27,79
451,312,27,79
451,312,27,79
451,312,27,79
451,312,27,79
451,312,27,79
451,312,27,79
452,312,27,79
452,312,27,79
452,312,27,79
452,312,27,79
452,312,27,79
453,312,27,79
453,312,27,79
453,312,27,79
453,312,27,79
453,312,27,79
453,312,27,79
454,312,27,79
454,312,27,79
454,312,27,79
454,312,27,79
454,312,27,79
455,312,27,79
455,312,27,79
455,312,27,79
455,312,27,79
455,312,27,79
456,312,27,79
456,312,27,79
456,313,27,78
455,313,27,78
455,313,27,78
455,313,27,78
455,313,27,78
455,313,27,78
455,313,27,78
455,313,28,78
454,313,28,78
454,313,28,78
454,313,28,78
454,314,28,78
454,314,28,78
454,314,28,78
454,314,28,78
453,314,29,77
453,314,29,77
453,314,29,77
453,314,29,77
453,314,29,77
453,314,29,77
453,314,29,77
452,314,30,77
452,315,30,77
452,315,30,77
452,315,30,77
452,315,30,77
452,315,30,77
452,315,30,77
451,315,30,77
451,315,31,76
451,315,31,76
451,315,31,76
451,315,31,76
451,315,31,76
451,316,31,76
450,316,31,76
450,316,31,76
450,316,30,77
450,316,30,77
450,316,29,78
450,316,28,78
449,316,27,79
449,316,29,79
449,316,31,79
449,316,33,79
449,316,33,79
449,316,33,79
449,316,34,79
449,316,34,79
449,316,34,79
449,316,34,79
449,316,35,79
449,316,35,79
449,316,35,79
450,316,35,79
450,316,35,79
451,315,35,79
451,315,35,79
451,315,35,79
452,314,35,79
452,314,35,79
453,314,35,79
453,314,35,79
453,313,35,79
454,313,35,79
454,313,35,79
454,312,35,79
455,312,35,79
455,312,35,79
456,312,35,79
456,312,35,79
457,312,35,79
457,312,35,79
458,312,35,79
458,312,35,79
459,313,35,78
459,314,34,77
460,314,34,77
460,315,33,76
461,315,33,76
461,316,32,75
462,316,31,75
462,317,31,74
463,317,31,74
463,317,30,74
464,318,30,74
465,318,30,74
466,318,30,74
467,318,30,74
468,319,30,74
468,319,30,74
469,319,30,74
469,319,30,74
469,319,30,74
470,319,30,74
470,319,30,74
471,319,30,74
471,319,30,74
471,319,30,74
472,319,30,74
472,319,30,74
472,319,30,74
473,319,30,74
473,319,30,74
473,317,30,74
473,315,30,74
473,313,30,74
473,311,30,74
473,309,30,74
473,307,30,74
473,305,30,74
473,303,30,74
473,300,30,73
473,298,29,73
473,296,29,72
473,293,29,72
473,291,28,71
473,289,28,71
473,288,28,71
472,288,28,71
472,287,28,71
472,286,28,71
472,286,28,71
471,285,28,71
471,285,28,71
471,284,28,71
470,283,28,71
470,283,28,71
470,282,28,71
469,282,28,71
469,281,28,71
469,280,28,71
469,280,28,71
469,279,28,71
469,278,28,71
469,278,28,71
469,276,28,71
469,275,28,71
469,273,28,71
469,272,28,71
469,270,28,71
469,270,28,71
469,269,28,71
469,268,28,71
469,268,28,71
469,267,28,71
469,266,28,71
469,265,28,71
469,265,28,71
469,265,28,71
470,265,28,71
470,265,28,71
470,265,28,71
470,265,28,71
470,265,28,71
470,265,28,71
470,265,28,71
470,265,28,71
470,265,28,71
470,265,28,71
470,265,28,71
470,265,28,71
471,265,28,71
470,265,28,71
470,264,28,70
470,263,28,70
470,262,28,69
470,261,28,69
469,260,28,69
469,260,28,69
469,259,28,70
469,258,28,70
469,257,28,71
469,256,28,71
469,255,28,72
469,255,28,72
469,255,28,72
469,255,28,71
469,256,28,70
469,256,28,69
469,257,28,69
469,256,28,69
470,256,28,69
470,256,28,69
470,260,28,69
473,258,28,69
476,256,28,69
479,254,28,69
484,254,28,69
490,253,28,69
500,252,28,69
510,252,28,69
516,249,28,69
519,249,28,69
522,249,28,69
525,249,28,69
526,249,28,69
527,250,28,68
525,252,27,68
523,254,27,67
516,256,27,67
509,258,27,66
505,258,25,66
498,258,27,66
492,258,27,66
485,258,28,66
479,258,29,66
473,258,30,66
469,258,29,66
465,257,28,66
461,257,27,66
457,257,25,66
457,253,25,66
455,251,25,66
454,248,25,66
458,244,25,66
463,241,25,66
471,239,25,66
478,238,25,66
485,237,25,66
488,237,25,65
490,238,25,64
488,239,25,65
485,241,25,66
479,242,25,65
473,242,25,64
467,243,25,62
461,244,25,61
461,243,25,61
461,242,25,61
469,239,25,61
478,235,25,61
492,234,25,61
494,235,25,61
497,235,25,61
500,235,25,61
503,236,25,61
501,237,25,61
499,238,25,61
492,242,24,61
485,246,24,61
468,251,24,61
450,257,24,61
442,257,24,61
441,256,24,61
439,255,25,61
448,248,25,61
456,241,25,61
468,242,24,57
481,241,24,56
488,244,24,55
506,243,24,55
510,247,24,55
510,246,24,55
515,249,24,57
507,251,24,61
490,257,24,61
473,263,24,61
466,267,24,61
466,270,24,61
476,262,24,59
487,253,24,57
502,250,24,57
516,247,24,57
526,244,24,57
519,244,24,57
512,244,24,57
505,243,24,57
490,254,24,57
479,257,24,57
474,259,24,57
477,260,24,57
498,257,24,57
528,253,24,57
549,243,24,57
557,242,24,57
552,242,24,57
547,242,24,57
541,242,24,57
521,244,24,55
497,251,24,56
466,258,24,57
462,258,24,57
466,258,24,57
479,243,24,57
494,233,24,57
524,233,24,56
536,234,24,55
535,233,24,54
534,232,24,52
528,238,24,52
489,237,24,52
472,251,24,52
476,250,24,52
480,250,24,52
484,249,24,52
520,241,24,52
535,248,24,52
540,248,24,52
544,247,24,52
535,246,24,52
495,243,24,52
471,244,24,52
446,248,24,52
441,247,24,52
437,247,24,52
468,244,24,52
500,241,24,52
524,241,24,52
534,240,24,52
544,239,24,52
545,238,24,52
534,241,24,52
512,245,24,52
490,250,24,52
473,254,24,52
457,255,24,52
456,254,24,52
462,255,24,52
496,250,24,52
530,244,24,52
565,238,24,52
571,238,24,52
554,237,24,52
536,236,24,52
519,234,24,52
490,241,24,49
472,245,24,49
472,248,24,49
473,253,24,49
472,263,24,49
505,264,24,49
523,255,24,49
551,241,24,49
