165,57,136,69
219,42,101,39
207,60,2,19
198,132,6,16
193,119,25,23
188,106,43,31
182,93,62,39
177,80,80,46
172,67,99,54
166,54,118,61
161,41,136,69
178,41,130,62
194,41,124,54
211,40,118,47
228,40,112,40
245,40,107,33
240,43,124,45
236,46,142,57
231,49,160,70
227,52,178,82
222,55,195,95
218,61,195,101
214,67,195,108
210,74,195,115
206,80,195,122
202,86,195,128
207,88,176,132
211,90,156,137
215,91,137,141
219,93,118,145
224,95,98,150
228,96,79,154
227,104,69,154
226,112,59,154
221,116,63,154
215,121,66,154
210,125,70,154
204,130,73,154
198,131,76,154
191,132,79,154
185,134,82,154
178,135,85,154
171,136,88,154
165,138,91,154
159,144,100,146
154,151,110,138
148,157,119,130
143,164,129,122
137,170,138,114
131,177,148,107
135,178,146,107
138,179,143,107
142,181,141,107
146,182,138,107
149,183,136,107
154,183,136,107
158,183,136,107
163,183,136,107
168,183,136,107
172,183,136,107
177,183,136,107
184,181,140,107
191,179,144,107
198,177,148,107
201,177,148,107
204,177,148,107
206,177,148,107
194,178,148,107
181,180,148,107
169,181,148,107
155,179,155,111
140,177,162,116
126,175,169,121
112,173,176,126
99,170,180,126
87,167,183,126
74,163,187,126
77,164,187,126
79,166,187,126
81,167,187,126
84,168,187,126
86,169,187,126
95,170,184,126
104,172,181,126
113,173,178,126
122,174,175,126
131,175,172,126
138,175,165,124
144,175,159,122
150,175,153,119
157,175,146,117
163,175,140,114
163,175,140,111
163,175,140,108
163,175,140,105
147,175,148,108
131,174,157,110
116,174,165,113
100,173,174,116
92,168,174,130
84,163,174,144
97,165,149,142
110,166,124,140
123,167,99,138
129,170,95,133
134,173,92,128
140,176,88,123
145,179,85,118
149,177,85,118
153,175,85,118
163,178,70,118
173,180,56,118
183,183,41,118
162,179,75,118
142,175,108,118
121,171,142,118
104,178,147,109
86,185,152,101
95,187,129,101
104,189,107,101
110,189,84,101
116,189,61,101
116,193,61,101
116,197,61,101
123,201,61,101
130,205,61,101
137,209,61,101
147,213,59,101
157,218,56,101
167,222,53,101
169,217,59,101
171,212,64,101
173,207,69,101
173,207,78,101
173,207,87,101
167,201,95,101
161,195,103,101
155,189,110,101
169,191,105,101
183,193,99,101
196,195,93,101
210,197,87,101
217,197,87,101
223,197,87,101
229,197,87,101
236,197,87,101
235,197,87,98
234,198,87,96
232,198,87,94
231,198,87,91
230,199,87,89
231,201,87,86
233,203,87,84
234,206,87,82
235,208,87,80
237,210,87,77
238,213,87,75
242,214,87,75
247,215,87,75
252,217,87,75
258,217,87,75
265,217,87,75
271,217,87,75
279,217,87,75
286,217,87,75
293,217,87,75
305,216,87,75
318,216,87,75
330,215,87,75
342,215,87,75
354,215,87,75
340,217,88,75
325,219,89,75
310,221,90,75
296,223,91,75
281,225,93,75
266,227,94,75
252,229,95,75
237,232,96,75
223,234,97,75
208,236,98,75
193,238,99,75
179,240,101,75
170,234,101,75
162,227,101,75
154,220,102,75
146,214,102,75
138,207,102,75
129,201,103,75
148,197,103,75
167,193,103,75
188,184,110,80
209,176,117,84
230,167,124,89
247,167,124,89
264,167,124,89
281,167,124,89
284,165,124,89
287,163,124,89
289,161,124,89
305,162,124,90
320,163,124,92
312,166,124,93
304,168,124,95
296,170,124,96
288,172,124,98
280,175,124,99
271,177,124,101
258,180,99,101
247,190,73,101
244,197,47,101
207,201,74,101
170,205,101,101
133,209,128,101
140,210,126,100
146,211,124,99
153,212,121,98
160,213,119,97
166,214,117,96
173,215,114,95
194,215,102,95
216,215,89,95
237,215,89,80
258,215,89,65
271,215,89,65
285,215,89,65
292,215,89,65
299,215,89,65
291,217,89,67
282,220,89,68
274,222,89,69
265,225,89,71
257,227,89,72
248,230,89,74
240,232,89,75
230,237,89,75
220,242,89,75
216,241,89,75
212,240,89,75
208,238,89,75
182,224,89,82
155,211,89,89
163,201,94,93
171,191,99,97
191,191,99,97
214,178,92,105
237,166,85,114
260,153,79,122
274,159,64,122
289,165,49,122
307,165,108,97
307,165,133,97
307,165,158,97
315,162,158,103
324,159,158,108
333,155,158,114
328,163,158,114
323,171,158,114
323,171,149,114
323,171,141,114
323,171,132,114
310,175,132,114
298,179,132,114
285,183,132,114
267,188,128,111
250,193,124,108
232,199,120,105
214,199,120,105
195,199,120,105
177,199,120,105
164,200,120,105
150,201,120,105
137,203,120,105
141,206,114,105
145,209,108,105
149,213,103,105
160,213,91,105
172,213,80,105
183,213,69,105
194,213,57,105
201,205,57,105
208,198,57,105
214,191,57,105
223,178,54,105
232,166,50,105
240,153,47,105
249,140,43,105
258,128,39,105
256,133,39,105
254,139,39,105
252,144,39,105
250,150,39,105
248,155,39,105
246,161,39,105
244,166,39,105
242,172,39,105
240,177,39,105
233,188,39,105
226,199,39,105
219,210,39,105
212,220,39,105
211,220,39,105
210,220,39,105
209,220,39,105
207,220,39,105
206,220,39,105
192,220,60,105
178,220,80,105
163,220,100,105
149,220,120,105
145,217,120,105
141,214,120,105
137,211,120,105
145,203,108,105
153,196,95,105
161,189,83,105
176,189,68,105
191,189,53,105
206,189,37,105
212,183,37,105
218,177,37,105
216,177,37,105
213,177,37,105
211,177,37,105
208,177,37,105
205,177,37,105
203,177,37,105
200,177,37,105
212,160,37,112
223,143,37,120
234,126,37,128
233,118,37,128
233,110,37,128
232,102,37,128
232,94,37,128
228,98,51,123
223,102,65,117
219,106,79,112
215,110,93,106
210,114,107,101
201,120,126,90
193,126,146,79
204,126,120,96
216,126,95,112
232,133,68,112
248,140,41,112
242,140,54,112
236,140,67,112
227,140,86,107
218,140,105,101
224,140,95,101
229,140,85,101
235,140,75,101
241,140,65,101
246,140,55,101
252,140,45,101
240,130,63,108
228,120,81,116
215,133,101,91
202,145,120,65
204,140,120,75
211,143,120,75
218,145,120,75
224,148,122,78
230,151,124,80
236,153,126,83
250,146,124,93
264,140,122,103
281,140,125,103
299,140,128,103
310,139,136,95
321,138,144,87
331,130,144,87
340,123,144,87
350,116,144,87
358,117,144,83
366,119,144,79
374,120,144,75
381,120,147,75
388,120,149,75
396,120,152,75
402,119,152,75
408,117,152,75
413,116,152,75
419,113,140,77
425,111,127,79
431,109,115,81
437,106,103,83
438,102,106,93
440,98,109,104
441,94,112,114
442,97,118,114
443,100,124,114
441,102,125,114
440,105,127,114
438,107,128,114
437,110,129,114
435,112,130,114
432,110,133,114
428,108,135,114
425,106,138,114
421,104,140,114
430,106,122,114
438,108,103,114
447,110,85,114
425,116,108,97
404,122,131,79
382,128,154,61
375,125,154,77
368,122,154,93
357,125,154,97
346,128,154,101
342,131,143,101
338,134,132,101
329,137,132,101
319,140,132,101
309,144,132,101
304,146,132,99
298,149,132,97
293,151,132,95
277,150,128,100
261,149,124,106
244,148,120,111
228,147,116,116
212,141,108,122
196,134,99,128
181,128,91,134
176,121,84,130
171,114,77,126
180,117,70,124
189,119,62,122
198,122,55,120
202,122,55,120
206,122,55,120
209,123,55,120
213,123,55,120
217,123,55,120
220,124,55,120
220,126,64,118
220,128,72,116
220,130,80,114
220,132,88,112
220,134,97,110
212,142,108,100
203,149,120,89
194,157,132,79
192,158,129,88
189,159,126,97
187,159,122,107
191,165,105,107
194,169,99,107
197,173,93,107
200,177,87,107
196,180,87,107
193,184,87,107
189,187,87,107
189,188,82,107
189,190,76,107
189,191,71,107
189,193,60,101
189,196,50,96
189,199,39,91
167,197,54,91
145,195,69,91
129,190,80,91
112,186,91,91
96,181,103,91
90,178,103,91
84,176,103,91
78,173,103,91
85,175,100,91
92,176,97,91
99,178,94,91
106,179,91,91
114,183,91,91
121,187,91,91
129,191,91,91
131,193,99,91
132,196,108,91
133,199,116,91
134,200,119,97
135,201,121,103
136,202,124,108
137,203,126,114
125,201,132,114
114,200,137,114
102,199,142,114
102,199,136,114
102,199,130,114
102,199,124,114
107,199,117,113
113,199,110,111
119,199,103,109
124,199,96,108
130,199,89,106
136,199,82,104
141,199,75,103
146,201,62,103
151,203,49,103
148,200,56,100
145,198,63,97
142,196,69,94
138,193,76,92
135,191,83,89
125,184,108,98
116,177,134,107
113,171,134,118
110,165,134,130
124,165,112,130
139,165,91,130
153,165,69,130
151,170,77,125
149,175,85,121
147,181,93,116
145,186,101,111
143,191,108,107
165,191,76,107
187,191,43,107
181,190,60,105
175,190,76,103
169,190,92,101
163,189,108,99
157,189,124,97
147,187,124,97
137,185,124,97
138,186,120,95
139,186,115,93
139,187,110,91
145,191,106,91
150,195,101,91
155,199,97,91
152,199,74,91
148,200,52,91
156,201,50,91
163,201,49,91
170,202,47,91
177,203,45,91
168,202,53,91
159,201,61,91
155,199,61,91
151,197,61,91
139,193,80,91
127,189,99,91
116,185,118,91
104,174,134,102
93,163,150,113
82,151,166,124
97,148,137,124
111,145,108,124
125,142,79,124
134,145,77,111
143,147,75,99
150,144,75,99
158,141,75,99
165,138,75,99
171,141,75,99
178,145,75,99
184,148,75,99
191,151,75,99
198,148,73,99
206,145,72,99
214,141,71,99
222,138,69,99
224,128,75,101
226,119,81,104
228,109,87,106
230,100,93,108
233,99,93,108
235,97,93,108
238,96,93,108
240,96,93,108
242,95,93,108
244,95,93,108
246,94,93,108
257,98,93,108
268,101,93,108
279,105,93,108
290,108,93,108
301,112,93,108
317,114,92,106
333,116,92,104
348,118,92,101
364,120,91,99
380,122,91,97
381,121,90,99
383,121,90,101
385,121,90,104
386,120,89,106
388,120,89,108
381,129,89,108
346,132,89,105
312,134,89,102
277,137,89,99
262,140,89,99
250,134,101,108
232,140,112,108
215,140,112,108
198,140,112,108
187,136,112,108
176,132,112,108
165,128,112,108
163,130,112,108
161,132,112,108
159,134,112,108
161,135,118,108
163,136,124,108
165,138,130,108
176,138,130,108
187,139,130,108
198,140,130,108
212,140,130,108
225,140,130,108
238,140,130,108
250,140,130,107
263,141,130,105
275,142,130,103
283,142,130,103
291,143,130,103
299,143,130,103
307,144,130,103
309,144,130,101
311,144,130,100
313,144,130,98
315,144,130,97
317,144,130,95
319,144,130,94
321,144,130,92
323,144,130,91
323,139,130,91
323,135,130,91
323,130,130,91
323,126,130,91
321,122,130,91
319,119,130,91
317,116,130,91
313,110,130,91
310,104,130,91
307,98,130,91
306,91,130,91
306,84,130,91
305,76,130,91
303,73,130,91
301,70,130,91
299,67,130,91
297,63,130,91
295,60,130,91
293,57,130,91
291,54,130,91
289,51,130,91
287,47,130,91
285,44,130,91
283,41,130,91
283,39,130,82
283,37,130,73
273,32,130,73
264,27,130,73
264,27,139,73
264,27,148,73
264,27,148,80
264,27,148,87
264,27,148,95
265,40,148,95
267,53,148,95
269,67,148,95
271,80,145,98
273,94,143,101
275,108,140,105
279,118,140,105
283,128,140,105
287,138,140,105
289,142,140,103
291,145,140,102
293,149,140,100
295,153,140,99
295,153,140,101
295,153,140,104
295,153,140,107
295,153,140,110
295,153,140,112
294,156,140,111
292,159,140,110
291,161,140,108
289,164,140,107
288,167,140,105
286,170,140,104
285,172,140,102
284,175,140,101
282,178,140,100
281,180,140,98
279,183,140,97
279,185,140,97
279,187,140,97
279,189,140,97
279,191,140,97
279,193,140,97
282,187,140,97
286,182,140,97
289,176,140,97
292,171,140,97
295,165,140,97
302,149,140,97
308,132,140,97
315,116,140,97
313,117,140,97
312,117,140,97
311,118,140,97
310,119,140,97
308,119,140,97
307,120,140,97
306,125,140,97
305,129,140,97
303,134,140,97
302,139,140,97
301,144,140,97
299,145,131,97
298,146,121,97
296,147,111,97
294,149,102,97
293,150,92,97
291,151,83,97
296,150,72,97
300,149,62,97
304,148,52,97
309,147,41,97
301,145,52,97
294,142,62,97
286,139,72,97
278,136,82,97
271,133,92,97
263,130,102,97
255,127,112,97
248,124,122,97
237,123,132,86
226,122,142,75
225,123,139,80
225,124,135,84
224,126,132,89
238,124,124,96
252,123,116,103
265,122,108,110
270,125,108,109
275,129,108,108
280,132,108,108
285,136,108,107
284,136,114,105
283,136,119,104
281,136,124,103
289,136,124,102
297,137,124,102
305,137,124,101
313,138,124,101
314,138,124,101
314,139,124,101
315,139,124,101
316,140,124,101
317,140,124,101
317,141,124,101
318,141,124,101
319,142,124,101
318,142,125,101
316,142,125,101
315,142,126,101
314,143,127,101
313,143,127,101
311,143,128,101
310,144,129,101
309,144,129,101
308,144,130,101
307,145,130,101
305,145,131,101
304,145,132,101
303,145,132,101
303,145,132,99
303,145,132,97
303,145,132,96
303,145,132,94
303,145,132,93
302,145,132,93
302,144,132,93
301,143,132,93
301,143,132,93
301,142,132,93
300,141,132,93
300,140,132,93
299,140,132,93
292,138,132,95
284,136,132,97
277,134,132,100
269,132,132,102
262,130,132,105
260,127,128,111
259,125,124,117
257,122,120,124
256,120,116,130
263,126,105,130
270,132,93,130
278,138,81,130
285,144,69,130
285,147,76,127
284,151,83,124
284,155,90,121
283,159,97,118
277,162,100,117
270,164,104,115
264,167,107,114
258,169,110,112
258,170,110,110
258,172,110,108
258,173,110,107
258,174,110,105
258,175,110,103
258,175,115,101
258,175,119,100
258,175,124,98
258,175,128,97
266,174,128,97
274,173,128,97
283,172,128,97
291,171,128,97
299,170,128,97
306,168,128,97
314,166,128,97
321,165,128,97
329,163,128,97
325,166,122,97
322,168,116,97
318,171,109,97
315,173,103,97
312,176,97,97
308,178,91,97
305,181,84,97
301,183,78,97
298,186,72,97
295,188,65,97
291,191,59,97
284,201,58,97
265,199,57,97
253,199,70,97
241,199,82,97
229,199,94,97
216,199,107,97
212,198,114,97
207,197,121,97
202,197,128,97
206,198,128,97
210,199,128,97
214,201,128,97
220,201,128,97
225,201,128,97
230,201,128,97
236,201,128,97
246,201,128,97
256,201,128,97
265,201,128,97
275,201,128,97
284,197,128,97
293,193,128,97
302,189,128,97
311,185,128,97
311,184,128,97
311,184,128,97
311,183,128,97
311,183,128,97
311,182,128,97
311,181,128,97
311,181,128,97
311,180,128,97
311,180,128,97
311,179,128,97
311,178,128,97
311,178,128,97
311,177,128,97
311,177,128,97
311,176,128,97
311,175,128,97
311,175,128,97
311,174,128,97
311,174,128,97
311,173,128,97
310,173,128,97
309,172,128,97
308,172,128,97
308,172,128,97
307,171,128,97
306,171,128,97
305,171,128,97
304,170,128,97
303,170,128,97
303,170,128,97
302,169,128,97
301,169,128,97
302,169,128,97
302,169,128,97
303,169,128,97
304,169,128,97
304,169,128,97
305,169,128,97
305,169,128,97
306,169,128,97
307,169,128,97
307,169,128,97
308,169,128,97
309,169,128,97
309,169,128,97
310,169,128,97
311,169,128,97
311,169,128,97
312,169,128,97
312,169,128,97
313,169,128,97
314,169,128,97
314,169,128,97
315,169,128,97
316,169,128,97
316,169,128,97
317,169,128,97
317,169,128,97
318,169,128,97
319,169,128,97
318,168,128,95
317,167,128,94
316,166,128,93
315,164,128,91
314,163,128,90
313,162,128,88
312,161,128,87
311,160,128,86
310,159,128,84
309,157,128,83
309,157,128,68
309,157,128,53
309,155,128,47
309,153,128,41
306,146,128,41
304,139,128,41
301,132,128,41
298,130,128,41
296,128,128,41
293,126,128,41
289,123,128,39
284,121,128,36
279,118,128,34
276,115,128,34
273,113,128,34
270,110,128,34
267,108,128,34
266,97,128,38
265,86,128,43
264,74,128,47
265,72,128,47
266,69,128,47
267,67,128,47
267,68,128,47
267,69,128,47
267,71,128,46
267,72,128,46
267,73,128,45
267,75,128,45
267,76,128,45
267,78,128,44
267,79,128,44
267,80,128,43
269,84,128,42
270,88,128,41
271,91,128,40
272,95,128,39
273,99,128,38
274,102,128,37
275,106,128,36
275,107,128,34
275,109,128,33
275,110,128,31
275,112,128,30
275,113,128,29
275,114,128,27
275,116,128,26
275,117,128,24
275,118,128,23
275,120,128,22
276,120,128,27
276,119,128,32
276,119,128,37
277,119,128,43
277,118,128,48
277,118,128,53
280,120,128,57
283,122,128,60
286,124,128,64
289,126,128,67
286,135,128,67
284,144,128,67
281,153,128,67
278,162,128,67
275,171,128,67
263,171,134,77
250,171,140,87
238,171,146,97
231,173,149,97
223,175,153,97
216,177,156,97
216,178,152,97
215,178,148,97
214,179,144,97
204,177,151,97
193,175,157,97
183,173,164,97
184,165,156,106
185,156,148,115
187,147,140,124
199,149,115,124
212,151,90,124
224,153,65,124
229,154,65,117
234,155,65,110
233,147,65,110
232,140,65,110
235,142,65,110
239,145,65,110
242,147,65,110
246,149,65,110
250,154,65,108
255,158,65,107
260,162,65,105
265,167,65,103
269,171,65,101
264,170,71,100
258,170,77,99
252,169,83,98
247,168,89,97
241,167,95,96
235,167,101,95
230,166,107,94
224,165,112,93
224,164,112,93
224,162,112,93
224,161,112,93
224,159,112,93
229,158,112,93
235,157,112,93
240,156,112,93
246,155,112,93
249,155,112,93
253,154,112,93
256,153,112,93
260,152,112,93
264,151,112,93
267,153,112,93
271,154,112,93
275,156,112,93
279,157,112,93
281,159,112,93
282,161,112,93
283,163,112,93
284,164,112,93
285,166,112,93
287,168,112,93
288,169,112,93
289,171,112,93
289,171,112,93
288,172,112,93
287,172,112,93
287,172,112,93
286,172,112,93
285,173,112,93
285,173,112,93
284,173,112,93
284,174,112,93
283,174,112,93
282,174,112,93
282,174,112,93
281,175,112,93
280,175,112,93
280,175,112,93
279,175,112,93
278,176,112,93
278,176,112,93
277,176,112,93
277,177,112,93
276,177,112,93
275,177,112,93
275,178,90,93
274,180,68,93
273,181,45,93
270,181,37,93
267,181,30,93
258,172,34,93
248,163,37,93
248,169,59,98
248,174,80,103
248,179,101,108
241,179,114,106
234,179,128,103
242,179,120,103
250,179,112,103
258,179,105,103
263,180,110,99
268,181,115,96
273,181,120,93
278,182,125,90
283,183,130,87
285,181,130,87
287,179,130,87
289,177,130,87
295,176,126,87
300,174,122,87
305,173,118,87
311,171,114,87
307,171,114,87
304,171,114,87
300,171,114,87
297,170,114,87
293,170,114,87
289,170,114,87
286,170,114,87
282,170,114,87
279,170,114,87
275,169,114,87
271,169,114,87
260,172,124,91
249,176,133,95
238,179,142,99
238,179,142,100
238,179,142,101
238,179,142,103
243,179,142,103
248,179,142,103
253,179,142,103
258,179,142,103
268,178,136,103
279,176,130,103
289,175,124,103
289,174,124,103
290,174,124,103
290,173,124,103
290,172,124,103
291,172,124,103
291,171,124,103
285,174,124,101
279,177,124,100
272,179,124,99
266,182,124,98
260,185,124,97
255,184,124,97
250,182,124,97
246,181,124,97
249,181,124,97
253,181,124,97
256,181,124,97
260,181,124,97
264,181,124,97
272,181,124,96
281,180,124,96
290,180,124,95
299,179,124,95
301,176,124,95
303,173,124,95
305,170,124,95
307,167,124,95
308,167,124,95
309,167,124,95
310,167,124,95
311,167,124,95
312,167,124,95
313,167,124,95
314,167,124,95
315,167,124,95
316,167,124,95
318,167,124,95
319,167,124,95
320,167,124,95
321,167,124,95
314,167,125,95
307,166,126,95
301,166,127,95
294,166,128,95
287,165,129,95
280,165,130,95
274,164,131,95
267,164,132,95
260,164,133,95
254,163,134,95
260,163,134,95
266,163,134,95
273,163,134,95
279,163,134,95
286,163,134,95
292,163,134,95
299,163,134,95
305,163,134,95
313,157,134,99
322,150,134,104
331,144,134,108
324,144,134,109
318,144,134,110
312,145,134,111
306,145,134,112
300,145,134,112
294,146,134,113
288,146,134,114
282,147,134,115
276,147,134,116
269,147,134,116
263,140,142,128
256,133,150,140
250,126,158,152
258,129,155,144
266,133,152,136
274,136,149,127
282,140,146,119
290,143,143,111
299,146,140,103
307,150,137,95
315,153,134,87
321,155,134,87
328,156,134,87
334,157,134,87
341,158,134,87
347,159,134,87
354,160,134,87
360,161,134,87
349,166,134,87
337,171,134,87
326,176,134,87
315,181,134,87
296,181,134,93
277,181,134,99
258,181,134,105
247,178,134,108
237,174,134,112
226,171,134,116
231,171,134,116
236,171,134,116
241,171,134,116
246,171,134,116
254,171,134,113
263,171,134,110
272,171,134,107
280,171,134,104
289,171,134,101
295,172,133,98
302,174,131,95
308,175,129,92
314,176,128,90
321,177,126,87
321,172,126,87
321,167,126,87
321,162,126,87
321,157,126,87
321,156,126,85
321,155,126,82
321,154,126,80
321,153,126,78
321,152,126,76
321,151,126,73
321,149,126,71
321,148,134,68
321,147,142,65
319,145,142,63
317,144,142,61
317,144,142,52
317,144,142,43
317,140,142,47
317,137,142,50
317,134,142,53
317,132,142,56
317,131,142,59
317,130,142,62
317,128,142,65
317,127,142,68
317,126,142,71
316,126,142,69
315,127,142,68
314,127,142,66
313,128,142,64
312,128,142,62
311,129,142,61
310,129,142,59
309,130,142,57
310,128,140,57
311,127,138,57
313,125,136,57
314,124,134,56
315,123,132,56
316,121,130,56
318,120,128,56
319,118,126,56
320,117,124,56
321,115,122,55
323,114,120,55
316,111,120,54
310,108,120,52
304,105,120,50
298,102,120,48
292,98,120,47
285,95,120,45
279,92,120,43
279,90,120,43
279,88,120,43
279,86,120,43
278,83,120,43
278,81,120,43
278,79,120,43
278,77,120,43
277,74,120,43
274,74,120,43
271,73,120,43
267,72,120,43
264,71,120,43
260,70,120,43
257,69,120,43
253,68,120,43
250,67,120,43
247,66,120,43
243,66,120,43
240,65,120,43
240,58,120,43
240,51,120,43
240,45,120,43
241,42,120,43
242,38,120,43
244,35,120,43
250,34,120,43
256,33,120,43
264,29,120,43
271,25,120,43
273,24,120,43
274,23,120,43
275,21,120,43
274,21,121,43
273,21,122,43
272,21,123,43
271,22,124,43
269,22,125,43
268,22,126,43
267,22,127,43
266,22,128,43
265,22,129,43
264,22,130,43
262,22,131,43
261,22,132,43
260,22,133,43
259,22,134,43
258,22,135,43
256,22,135,43
255,23,136,43
254,23,137,43
253,23,138,43
252,23,139,43
250,23,140,43
249,23,141,43
248,23,142,43
247,23,143,43
246,23,144,43
246,24,137,48
246,25,131,52
247,26,124,56
247,27,118,60
247,28,111,64
247,28,105,69
247,29,98,73
248,30,92,77
248,31,85,81
248,32,79,85
248,33,72,90
249,34,66,94
249,34,59,98
249,35,53,102
249,36,46,106
250,37,39,110
250,49,39,110
250,61,39,110
251,73,39,110
251,86,39,110
251,98,39,110
252,110,39,110
251,122,44,110
250,135,49,110
250,147,53,110
252,161,47,110
255,175,41,110
258,189,36,110
252,196,36,110
247,203,36,110
242,211,36,110
237,211,41,110
231,211,46,110
226,211,51,110
221,211,57,110
216,211,62,110
210,211,67,110
205,211,72,110
200,211,78,110
194,211,83,110
179,211,104,110
163,211,125,110
147,211,146,110
159,206,134,110
171,201,122,110
183,196,110,110
194,191,99,110
206,186,87,110
218,181,75,110
210,176,99,110
202,171,122,110
208,165,128,110
214,159,133,110
220,153,138,110
220,153,145,110
220,153,153,110
220,153,160,110
242,151,156,110
264,148,153,110
285,146,149,110
307,144,146,110
328,144,137,107
350,145,127,103
371,146,118,100
392,147,108,96
413,147,99,93
417,146,110,93
421,145,122,93
419,145,130,100
416,145,137,107
413,145,144,114
406,151,144,112
399,156,144,110
392,161,144,108
385,166,144,107
378,171,144,105
372,173,137,105
366,175,130,105
349,175,108,109
333,175,85,114
320,174,85,114
307,173,85,114
288,179,81,114
269,185,77,114
250,191,73,114
236,191,91,114
222,191,110,114
208,191,128,114
208,191,137,114
208,191,145,114
208,191,154,114
214,193,154,114
220,195,154,114
226,197,154,114
235,201,146,106
244,206,138,97
254,211,130,89
257,207,128,86
261,203,126,83
264,199,124,80
267,195,122,77
268,192,122,77
269,189,122,77
270,186,122,77
271,183,122,77
271,180,122,77
271,178,122,77
271,175,122,77
272,174,122,77
272,173,122,77
272,172,122,77
273,171,122,77
273,169,122,77
273,168,122,77
273,167,122,77
272,166,122,74
271,164,122,71
270,163,122,68
269,161,122,66
268,160,122,63
267,158,122,60
266,156,122,57
265,155,122,54
264,153,122,51
268,145,122,47
273,136,122,42
277,128,122,37
277,119,122,37
276,109,122,37
275,100,122,37
267,96,122,37
259,92,122,37
250,88,122,37
242,84,122,37
242,80,122,37
242,76,122,37
242,73,122,37
242,73,122,41
242,73,122,44
242,73,122,48
242,73,122,51
243,77,122,49
245,81,122,46
247,86,122,43
248,90,122,40
250,94,122,37
252,96,122,37
255,97,122,37
257,99,122,37
260,101,122,37
263,102,122,37
265,104,122,37
268,105,122,37
270,107,122,37
273,108,122,37
275,110,122,37
276,110,122,38
276,111,122,39
277,111,122,40
277,112,122,41
278,112,122,42
278,113,122,43
279,113,122,44
279,114,122,45
280,114,122,46
280,115,122,47
281,115,122,48
281,116,122,49
285,116,122,49
288,116,122,49
291,116,122,49
293,117,122,49
295,119,122,49
297,120,122,49
299,121,122,49
301,122,122,49
303,124,122,49
305,125,122,49
307,126,122,49
309,128,122,49
309,128,122,49
309,129,122,49
309,130,122,49
309,130,122,49
309,131,122,49
309,132,122,49
309,132,122,49
309,133,122,49
309,134,122,49
310,135,122,49
311,137,122,49
311,139,122,49
312,140,122,49
313,142,122,49
314,144,122,49
315,145,122,49
315,145,122,49
315,145,122,49
316,145,122,49
316,145,122,49
316,144,122,49
317,144,122,49
317,144,122,49
317,144,122,49
318,144,122,49
318,143,122,49
318,143,122,49
319,143,122,49
319,143,122,49
319,143,122,49
319,142,122,49
320,142,122,49
320,142,122,49
320,142,122,49
321,142,122,49
324,141,122,49
327,140,122,49
331,140,122,49
331,140,122,55
331,140,122,60
331,140,122,65
331,140,122,70
331,140,122,76
331,140,122,81
331,143,122,81
331,146,122,81
331,149,122,81
331,153,122,81
331,156,122,81
331,159,122,81
327,159,122,81
323,159,122,81
320,158,122,81
316,158,122,81
313,157,122,81
302,160,122,81
292,163,122,81
281,165,122,81
295,162,122,85
309,159,122,90
323,156,122,95
337,153,122,99
350,150,122,104
364,147,122,108
372,150,130,108
370,151,137,107
369,151,144,106
228,175,152,105
382,154,152,105
385,157,152,105
396,157,152,97
403,160,152,100
409,162,152,104
424,169,152,97
423,169,152,97
437,177,139,91
448,174,127,101
441,187,152,97
459,181,135,104
471,183,117,110
463,192,140,117
471,187,146,124
485,192,129,124
477,192,147,124
470,193,165,124
510,190,112,124
546,199,97,114
552,191,84,95
567,208,72,94
571,209,59,93
558,209,80,91
526,204,108,90
546,203,87,89
553,202,78,89
545,210,70,89
544,201,43,89
547,209,25,92
540,197,30,95
500,207,85,99
503,195,105,99
467,198,147,103
461,191,146,110
458,192,156,105
463,195,136,99
468,193,118,99
480,202,99,81
488,201,65,85
490,196,51,85
491,208,67,86
486,203,67,87
501,221,67,88
462,201,126,106
476,208,140,115
475,199,154,125
500,211,154,116
507,201,143,122
514,191,132,128
518,191,120,134
538,207,102,108
545,215,84,104
571,220,65,89
557,220,60,86
555,220,55,89
553,213,49,93
533,206,64,99
545,199,54,105
547,203,38,110
544,205,33,116
533,202,39,122
540,199,32,128
519,195,42,116
508,213,61,101
502,203,80,105
472,206,118,110
469,201,140,114
465,197,128,110
467,187,116,114
477,203,123,101
477,204,130,108
475,199,136,79
464,199,136,81
476,203,136,82
481,199,136,84
480,195,136,85
481,198,136,87
483,202,136,89
488,200,132,90
494,197,128,92
492,197,129,88
491,197,129,85
489,196,130,81
489,197,130,84
488,197,131,87
487,197,132,90
486,198,132,93
485,199,129,96
484,201,126,99
483,202,124,102
482,203,121,105
479,203,126,108
476,202,131,111
473,201,136,114
472,205,137,110
471,209,137,106
470,213,138,101
472,213,138,102
474,212,139,103
476,212,139,104
473,212,140,105
470,211,140,106
467,210,141,107
463,209,141,108
460,208,142,109
464,207,139,110
467,206,137,111
471,205,135,112
474,203,132,113
477,202,130,114
474,204,130,115
471,205,129,116
468,207,128,117
473,205,130,118
467,204,135,118
479,208,132,118
475,207,133,118
471,207,134,118
472,206,137,118
481,211,126,118
467,209,136,107
457,201,146,118
457,213,145,118
468,214,127,118
456,212,128,118
456,213,129,118
453,212,131,118
450,210,132,118
448,209,133,118
448,209,134,118
448,210,136,118
448,210,137,118
451,224,138,103
448,215,138,112
448,215,138,118
448,217,139,116
448,218,139,113
448,220,139,110
443,219,139,111
437,218,139,112
441,217,140,112
444,216,140,113
441,219,140,112
438,223,140,112
436,219,140,112
435,215,141,113
435,216,141,114
435,217,141,115
435,218,142,115
434,219,143,116
434,220,144,117
427,219,143,118
419,218,142,118
429,218,142,110
426,219,142,111
423,220,142,112
431,218,142,113
426,218,142,114
422,217,142,115
424,219,142,112
427,221,142,108
429,222,142,105
429,221,142,104
429,220,141,104
431,220,141,103
434,221,141,103
434,220,141,106
434,219,140,108
434,217,140,111
434,216,140,113
434,215,139,116
434,214,139,118
434,214,139,117
435,213,138,116
435,213,138,115
435,213,138,114
435,213,138,113
435,214,137,112
434,215,137,111
434,217,137,110
434,218,136,109
434,219,136,108
433,221,136,108
433,222,136,107
432,221,135,107
432,220,135,108
431,219,135,108
430,218,134,109
429,217,134,110
428,216,134,110
429,215,133,109
429,214,133,107
429,213,133,105
429,212,133,103
433,211,132,101
437,210,132,100
441,208,132,98
445,207,131,96
446,208,131,94
446,209,131,92
446,210,130,91
447,211,130,89
447,207,129,93
448,203,128,97
448,200,127,102
450,201,126,106
453,202,125,110
455,203,124,114
453,204,128,114
451,205,132,114
449,215,136,114
451,211,138,114
454,208,140,114
456,205,142,114
454,206,147,114
452,207,151,114
450,207,156,114
448,208,160,114
449,209,156,114
449,210,153,114
450,211,149,114
451,213,146,114
449,205,144,112
452,206,143,116
455,207,141,120
455,208,144,120
455,208,146,120
456,209,148,119
456,209,150,119
456,210,152,119
453,209,144,122
450,208,136,125
439,217,152,107
440,216,152,106
440,216,151,106
441,216,151,106
441,216,151,105
442,216,150,105
442,216,150,104
443,216,150,104
444,216,150,104
444,216,149,103
445,216,149,103
445,215,149,103
446,215,148,102
446,215,148,102
447,215,148,102
448,215,147,101
448,215,147,101
449,215,147,101
449,215,147,100
450,215,146,100
450,215,146,100
456,204,139,126
457,203,143,124
457,202,148,123
457,202,152,122
461,207,137,117
466,213,121,112
455,206,142,121
445,199,162,130
457,213,140,110
459,211,140,111
461,210,139,112
463,209,139,113
459,210,139,110
454,211,139,108
450,213,138,105
447,213,148,118
448,209,145,114
452,208,143,110
457,207,141,107
457,211,138,103
456,207,137,103
455,203,135,103
454,200,134,103
453,196,132,103
455,190,136,103
457,183,141,103
459,177,145,103
480,172,105,103
500,166,65,103
516,173,45,103
507,161,56,103
498,149,66,103
508,152,58,103
517,154,51,103
518,161,49,103
520,168,47,103
521,175,45,103
522,182,43,103
523,180,42,103
523,179,41,103
524,177,39,103
521,171,45,100
519,166,50,97
516,160,55,95
500,164,78,88
484,167,101,81
479,165,112,85
473,163,123,90
471,163,126,90
470,164,129,90
468,164,132,90
467,165,135,90
461,169,150,85
479,171,121,87
479,172,121,88
480,174,122,88
481,175,123,89
482,176,124,89
483,177,125,90
482,178,126,90
482,179,127,90
481,179,128,89
481,180,129,89
481,181,130,89
481,181,130,88
481,180,130,88
481,180,130,87
482,180,130,87
482,180,130,86
482,179,130,85
482,179,130,85
483,179,130,85
483,179,129,86
484,179,128,86
484,179,128,87
485,179,127,87
485,178,126,87
486,178,126,88
486,178,125,88
487,178,125,89
488,178,124,89
488,178,123,90
489,178,123,90
489,178,122,90
489,177,123,91
489,176,124,91
489,175,125,92
489,174,126,92
489,173,127,93
488,173,128,93
488,172,130,93
488,171,131,94
488,170,132,94
488,169,133,95
488,168,134,95
488,167,135,96
488,166,136,96
490,168,135,96
492,169,133,97
494,170,132,97
496,172,131,98
498,173,130,98
500,174,129,99
502,176,128,99
504,177,126,99
506,178,125,100
511,174,130,102
516,169,134,104
521,164,139,106
526,160,143,108
531,155,147,111
536,151,152,113
541,146,156,115
539,148,151,113
538,151,146,111
537,153,141,109
535,156,137,106
528,158,130,107
520,161,123,107
512,164,116,107
505,166,109,107
497,169,103,107
490,172,96,107
482,175,89,107
484,176,94,104
486,178,98,102
488,180,103,99
490,182,107,96
492,184,112,94
502,179,116,97
512,174,120,100
522,169,125,103
531,165,129,106
541,160,134,109
540,159,136,112
538,161,131,114
537,163,126,116
535,165,121,118
533,167,116,120
532,169,111,122
532,174,106,118
531,179,100,113
531,183,95,108
518,187,105,105
504,190,114,102
490,194,123,99
500,201,99,95
496,199,98,98
493,198,98,101
496,199,97,104
499,200,96,107
502,200,96,110
503,201,95,113
504,201,95,116
499,187,97,116
504,197,100,116
506,198,96,112
508,199,93,108
508,197,91,110
507,195,90,112
506,193,88,113
506,192,86,115
508,195,85,116
505,197,85,116
501,198,85,116
498,200,85,115
498,199,85,115
498,197,85,114
498,198,85,114
497,199,85,114
497,200,85,114
497,201,85,114
496,202,85,114
496,203,85,114
501,199,85,112
507,195,85,110
512,191,85,108
511,189,86,108
509,188,87,107
508,187,88,107
507,185,90,106
505,184,91,106
504,183,92,105
503,181,93,105
503,182,85,105
504,184,77,105
504,185,69,105
503,185,69,105
502,185,69,106
502,184,69,107
501,184,69,107
500,184,69,108
499,184,69,109
500,182,76,107
501,180,84,105
502,178,91,103
502,177,98,101
503,175,106,98
506,167,114,95
509,159,122,92
512,151,130,89
509,151,139,71
505,151,147,53
529,157,128,59
552,163,109,66
540,158,110,72
528,153,112,78
534,152,113,84
539,151,115,90
550,163,79,77
548,160,85,80
547,157,91,84
545,153,98,87
544,150,104,90
551,144,106,93
557,138,108,97
544,132,133,94
531,126,158,92
527,121,150,89
524,116,142,87
530,101,120,94
536,85,99,101
553,84,57,108
552,100,67,114
535,106,78,105
518,113,89,95
516,106,83,114
509,127,76,106
502,149,70,97
501,151,63,101
499,154,57,106
510,164,50,110
520,173,43,114
517,178,46,114
515,182,49,114
516,192,48,114
517,202,47,114
520,199,46,114
522,197,46,114
525,195,45,114
524,209,45,114
525,204,44,106
527,199,42,97
529,195,41,89
519,191,52,88
510,187,63,87
513,190,64,99
516,193,65,110
514,194,62,103
513,195,59,96
516,197,55,89
511,194,56,89
507,192,58,89
502,189,59,89
504,189,55,89
507,185,51,89
510,182,47,89
513,179,43,89
516,175,39,89
510,172,40,95
503,168,40,102
488,155,54,90
473,142,67,79
455,124,66,83
437,106,64,87
422,104,65,101
408,102,65,114
390,107,85,73
372,112,106,33
358,92,118,66
344,73,130,99
355,70,124,108
365,68,117,116
362,82,110,105
347,84,119,98
347,82,117,102
346,80,114,107
345,84,119,105
343,87,125,103
341,90,130,101
340,94,135,99
354,112,134,97
369,130,133,95
384,147,132,93
400,148,138,98
415,149,144,103
423,151,150,120
449,153,137,114
474,155,123,108
500,157,110,101
525,159,97,95
542,177,71,89
553,181,67,82
565,185,63,75
554,182,78,85
544,179,94,96
549,182,75,103
553,185,57,110
549,188,52,111
545,191,46,112
541,194,41,113
537,198,35,114
533,201,30,115
532,203,30,116
530,198,41,114
527,194,52,111
525,189,63,108
523,185,75,105
505,163,95,102
489,166,121,99
473,169,146,97
389,172,132,97
306,176,118,97
473,177,132,77
475,176,125,81
477,175,118,85
479,174,111,89
481,173,105,93
485,174,112,97
489,174,119,102
494,175,127,106
498,175,134,110
506,175,139,110
514,175,143,110
522,175,148,110
529,173,144,110
536,171,141,110
543,169,138,110
550,167,134,110
555,171,116,110
561,175,98,110
567,179,79,110
573,183,61,110
561,188,66,101
549,193,71,92
536,198,76,83
532,199,67,89
526,190,59,94
520,182,50,100
515,174,42,105
516,175,41,110
502,173,37,110
490,178,53,106
479,183,69,101
460,174,100,100
442,166,132,99
441,169,160,99
453,174,137,99
465,178,114,99
477,183,91,99
489,182,77,99
501,181,63,99
504,181,75,99
505,186,82,99
505,190,88,99
506,195,95,99
508,189,107,99
510,183,118,99
512,177,130,99
513,165,132,105
515,153,134,110
516,142,136,116
530,141,105,116
544,140,74,116
558,139,43,116
532,132,73,93
516,124,84,116
497,117,104,91
473,120,121,97
450,123,139,104
443,120,129,105
435,118,118,107
417,122,115,104
398,127,111,102
380,131,108,99
351,130,120,97
323,130,132,95
303,131,132,95
283,132,131,95
264,134,130,95
259,133,117,95
254,132,104,95
344,199,91,95
242,130,95,95
311,157,99,95
380,183,103,95
309,165,103,95
238,146,103,95
267,154,103,95
297,163,103,95
327,171,103,95
356,179,103,95
260,159,124,95
274,167,122,95
289,174,119,95
303,181,116,95
342,185,99,95
382,189,82,95
421,193,65,95
456,197,54,91
490,201,43,87
498,207,57,83
506,213,71,79
515,216,76,89
511,211,87,99
508,207,99,108
520,218,78,100
532,230,57,91
517,222,58,93
503,213,59,96
488,205,59,99
