306,277,124,83
306,277,124,83
305,277,124,83
305,277,124,83
305,277,124,83
305,277,124,84
305,276,123,85
305,275,123,86
305,274,123,86
305,274,123,87
305,273,122,88
305,272,122,89
305,271,122,89
305,271,121,90
305,270,121,91
305,269,121,91
305,269,120,92
305,268,120,93
305,267,120,94
305,266,119,94
305,266,119,95
305,265,119,96
305,264,118,97
305,263,118,97
305,263,118,98
305,262,117,99
305,261,117,100
305,260,117,100
305,260,116,101
305,259,116,102
305,258,116,103
305,257,116,103
305,257,115,104
305,256,115,105
305,255,115,106
305,254,114,106
305,254,114,107
305,253,114,108
305,252,113,109
305,251,113,109
306,249,113,109
308,247,113,109
309,245,113,109
310,243,113,109
312,240,113,109
313,240,111,107
314,239,109,105
315,238,107,103
316,237,106,100
318,237,104,98
318,237,104,98
318,237,104,98
318,237,105,98
318,237,105,98
318,237,106,98
319,237,106,98
320,237,106,98
321,237,106,98
322,237,106,98
323,237,106,98
323,238,105,99
323,240,105,99
322,241,105,100
322,243,105,100
322,244,104,101
322,246,104,101
321,247,104,102
321,248,104,102
321,250,103,103
321,251,103,103
320,253,103,104
320,254,103,104
320,256,102,105
320,257,102,105
319,259,102,106
313,262,106,106
307,266,110,106
300,269,114,106
294,272,118,106
288,276,122,106
285,278,121,106
282,280,119,106
279,282,118,106
276,284,116,106
273,287,115,106
265,285,120,107
258,283,126,109
250,281,132,111
242,279,137,113
234,277,143,115
235,277,143,116
236,276,143,116
238,275,143,117
239,274,143,118
240,274,143,119
253,274,140,116
266,275,137,113
280,276,134,110
293,277,131,107
306,277,128,104
320,277,126,102
335,276,123,101
349,275,121,99
363,274,119,98
377,274,117,96
375,273,122,98
372,271,127,99
370,270,132,101
368,269,137,102
366,268,143,104
366,268,143,102
366,268,143,100
366,268,143,98
366,268,143,96
366,268,143,94
366,268,143,95
366,268,143,95
366,268,144,96
366,268,144,96
366,268,144,96
365,268,145,97
365,268,146,97
365,268,147,97
364,268,147,98
364,268,148,98
358,268,146,99
353,268,144,99
347,268,143,99
342,268,141,100
336,268,139,100
322,267,139,101
307,267,140,101
293,266,140,102
278,265,140,103
264,264,141,104
266,262,142,108
268,259,142,112
270,257,143,116
273,254,144,120
275,251,144,124
280,255,146,123
285,258,147,122
289,261,149,121
294,265,150,120
299,268,152,119
302,268,145,119
306,268,138,119
309,268,131,119
312,268,124,119
316,268,117,119
343,268,78,119
343,268,69,119
326,265,95,123
308,263,122,128
308,264,122,126
302,270,136,117
295,276,150,108
289,282,164,100
285,285,168,103
282,289,172,107
283,289,173,111
283,289,175,116
284,290,176,120
284,290,177,124
285,290,179,129
288,289,181,126
290,288,184,124
293,286,187,122
281,298,187,122
293,309,175,91
292,309,175,91
290,309,175,91
289,309,175,91
288,309,175,91
284,309,175,91
279,308,176,92
275,306,178,94
271,305,179,95
266,303,181,97
262,302,182,98
261,298,182,98
259,294,182,98
258,290,182,98
257,285,182,98
256,281,182,98
260,277,182,103
264,272,182,108
268,268,182,113
272,264,182,118
276,259,182,122
282,262,183,119
288,265,185,116
293,268,186,113
299,271,188,110
304,274,189,108
313,275,184,106
322,277,179,105
331,278,174,103
340,280,169,102
349,281,163,100
359,281,163,100
369,281,162,100
380,281,161,100
390,281,161,100
401,281,160,100
409,281,160,97
417,281,160,95
382,413,152,58
382,411,154,62
382,409,155,66
382,406,156,70
382,404,157,75
382,402,159,79
382,400,160,83
382,400,159,83
382,400,159,83
382,400,158,83
382,400,157,83
382,400,157,83
382,400,156,83
382,400,156,84
383,400,156,85
383,400,156,85
384,400,156,86
384,401,156,87
384,399,156,87
384,398,156,88
383,396,156,88
383,395,156,89
383,394,156,90
383,394,156,89
383,394,156,89
382,394,156,88
382,394,156,88
382,394,156,87
382,394,156,88
382,394,156,89
382,393,156,89
382,393,156,90
382,392,156,91
382,394,156,90
382,395,156,89
383,396,156,88
383,397,156,86
383,398,156,85
383,398,156,86
383,397,156,86
384,397,156,86
384,397,156,87
384,396,156,87
384,396,156,87
384,396,155,88
384,396,155,88
384,395,155,88
384,395,154,88
384,395,154,88
384,395,153,88
384,395,153,89
384,395,153,89
384,394,152,89
384,394,153,89
384,394,153,89
384,394,153,89
384,394,154,89
384,394,154,89
384,394,154,90
384,393,154,90
384,392,154,91
384,391,154,92
384,391,154,93
384,391,154,92
384,391,154,92
384,392,154,92
384,392,154,91
384,392,154,91
384,393,155,90
385,393,156,89
385,394,158,88
385,394,159,86
386,394,160,85
385,402,156,60
384,401,157,63
384,400,158,66
383,399,159,69
382,398,160,72
382,398,160,75
382,397,161,77
382,397,161,79
382,397,161,81
382,396,162,83
382,395,162,85
382,395,162,86
382,394,162,87
382,393,162,88
382,392,162,89
382,393,162,86
382,394,162,84
382,395,162,81
382,397,162,77
382,398,162,74
382,398,162,73
382,399,162,72
382,399,162,70
382,400,162,69
382,400,162,72
382,400,162,73
381,400,162,75
381,400,163,76
381,400,163,77
380,400,163,78
381,402,159,82
381,405,154,85
384,407,149,78
387,407,142,81
389,407,136,83
389,408,136,81
388,410,136,79
387,411,136,77
386,412,136,75
386,413,136,72
386,413,136,70
386,413,137,68
386,413,138,66
386,413,139,63
386,413,139,61
387,414,140,58
388,415,140,54
389,416,141,50
390,417,141,46
391,418,141,43
391,413,141,48
391,407,141,53
391,402,140,58
391,396,140,63
391,391,139,69
391,385,143,78
391,380,147,88
390,375,151,98
390,370,154,107
389,365,158,117
389,361,154,121
389,357,151,126
389,354,147,131
389,350,144,135
389,357,145,117
389,355,146,120
389,353,148,123
389,351,149,127
389,348,151,130
389,346,152,133
389,346,153,133
389,346,155,133
389,346,156,133
389,346,157,133
389,346,158,133
387,346,160,135
384,345,162,136
382,345,163,138
379,345,165,139
376,344,167,141
376,344,168,141
376,344,169,141
376,344,171,141
376,344,172,142
376,344,173,142
376,344,174,142
376,344,175,142
376,344,176,142
376,344,177,143
376,344,178,143
385,350,168,122
394,355,157,102
402,361,146,82
411,367,135,61
419,372,125,41
417,367,127,52
415,362,130,64
414,358,132,75
412,353,135,87
410,348,138,98
410,345,140,107
410,343,142,116
410,340,144,125
410,338,146,134
410,335,149,143
402,330,149,137
395,325,149,132
388,320,149,126
384,320,152,126
380,320,156,126
380,321,156,126
379,322,156,126
379,322,156,126
379,323,156,126
378,324,156,126
378,324,156,125
378,324,156,125
378,324,155,124
378,324,155,123
378,324,155,123
378,324,155,122
378,324,154,121
378,324,154,120
378,324,154,120
378,325,154,120
378,325,154,120
378,326,154,120
379,328,154,120
380,331,153,120
380,333,152,120
380,335,152,120
380,337,152,120
380,339,152,120
380,341,152,120
380,342,152,120
379,343,152,120
377,344,152,120
376,345,152,120
374,345,152,120
373,346,152,120
373,346,152,120
373,346,152,120
374,346,152,120
374,346,152,120
374,346,152,120
374,346,152,120
375,346,152,120
375,346,152,120
375,346,152,120
375,346,152,120
376,346,152,120
376,346,152,120
376,346,152,120
376,346,152,120
376,346,152,120
376,345,152,120
375,344,152,120
374,343,152,120
374,342,152,120
373,341,152,120
373,341,152,121
373,341,152,122
373,341,152,123
373,341,152,123
373,341,152,124
372,341,152,124
372,341,152,124
372,341,152,124
371,341,152,124
371,341,152,124
371,341,152,124
371,341,152,123
371,342,152,123
371,342,152,123
371,342,152,122
371,342,152,122
370,342,152,122
370,342,152,122
369,342,152,122
369,342,152,122
369,342,152,122
369,342,153,122
369,342,153,122
369,342,153,122
369,342,153,122
369,342,153,122
369,342,153,122
369,342,153,122
369,342,153,122
369,342,154,122
369,342,154,122
369,342,154,122
369,342,154,122
369,342,154,122
369,342,154,122
370,343,154,122
371,344,154,121
371,345,154,120
372,345,154,119
373,346,154,119
374,348,156,119
375,349,158,119
376,351,160,119
376,352,162,119
377,354,163,119
378,355,165,119
382,358,165,108
385,361,165,98
388,364,165,88
391,367,165,78
391,366,165,79
391,366,165,79
391,365,164,80
391,365,164,81
391,365,163,82
391,363,163,82
391,362,163,82
390,360,163,82
390,359,163,82
389,357,163,82
389,356,163,82
389,354,163,82
388,353,163,82
388,351,163,82
388,350,163,82
389,347,161,86
390,344,159,90
391,341,157,95
392,338,155,99
393,335,152,104
393,335,152,99
393,335,152,94
393,335,152,89
393,335,152,85
393,335,152,80
395,333,153,87
396,331,154,95
398,328,155,102
399,326,155,109
401,324,156,117
400,321,156,123
400,317,156,130
399,314,156,137
399,311,156,143
399,307,156,150
399,307,156,145
399,307,156,139
397,305,156,128
395,305,158,128
393,305,160,128
391,305,162,128
388,305,165,128
386,305,167,128
384,305,169,128
382,305,171,128
382,308,171,128
382,310,171,128
383,312,171,128
383,314,171,128
383,317,171,128
383,319,171,128
383,321,171,128
384,323,171,128
384,325,171,128
384,328,171,128
386,338,167,125
388,348,163,123
391,358,159,120
393,368,155,118
395,378,151,115
396,385,146,109
397,393,142,103
398,401,138,97
399,409,134,91
401,417,130,85
401,409,130,85
402,402,130,85
403,394,130,85
404,387,130,85
404,380,130,85
402,372,131,89
401,365,132,92
399,358,133,95
397,351,135,99
395,344,136,102
393,339,136,102
391,334,137,102
389,329,138,102
388,324,139,102
386,318,139,102
385,317,138,101
384,316,136,100
382,315,135,100
381,314,133,99
380,313,132,98
379,311,132,98
377,309,132,98
376,307,132,98
374,305,132,98
373,304,132,98
373,304,132,98
374,304,132,98
374,304,132,98
374,304,132,98
375,304,132,98
375,301,133,98
375,299,134,98
376,297,135,98
376,295,136,98
376,292,138,98
376,291,137,93
376,290,137,89
376,288,136,84
376,287,136,79
376,285,136,74
376,286,136,73
376,287,136,72
376,288,136,71
376,290,136,70
376,291,136,69
376,290,136,69
376,289,136,69
376,288,136,69
376,287,136,69
376,286,136,69
376,285,136,69
376,288,136,66
376,291,136,63
376,293,136,60
376,296,136,58
376,295,138,58
375,294,139,59
374,293,141,60
374,292,143,60
373,291,145,61
374,289,146,67
376,288,147,73
377,286,148,79
379,285,149,85
380,283,151,91
376,277,154,99
373,270,158,107
369,263,162,115
365,257,165,123
362,250,169,132
359,248,167,132
356,246,165,132
354,244,162,132
351,242,160,132
349,241,158,132
348,240,158,132
346,239,158,132
345,238,158,132
344,238,158,132
343,237,158,132
342,237,157,132
341,236,156,132
340,236,156,132
339,235,155,132
338,235,154,132
338,235,153,131
338,235,153,130
338,235,152,129
338,235,151,129
338,235,151,128
338,235,150,128
338,235,150,128
338,235,149,128
338,235,149,128
338,235,148,128
338,235,148,128
338,235,147,128
338,235,147,128
338,235,146,128
338,235,146,128
338,235,145,128
338,235,145,128
338,235,144,128
338,235,144,128
338,235,143,128
337,237,143,125
336,239,142,122
335,241,142,119
335,242,142,116
334,244,141,113
334,244,139,113
334,244,136,113
334,244,133,113
334,244,131,113
334,244,128,113
332,245,130,114
330,245,132,115
328,245,134,116
326,246,136,118
325,246,138,119
322,246,142,119
319,246,147,119
317,246,152,120
314,246,157,120
312,246,162,120
317,248,159,117
323,249,156,114
328,251,153,111
334,252,151,108
339,254,148,105
345,255,145,102
347,257,145,102
349,258,144,102
351,260,144,102
352,261,143,102
351,261,143,102
351,261,142,102
350,261,142,102
349,261,141,102
338,261,151,109
337,261,151,109
337,261,151,109
336,261,152,109
336,261,152,109
336,261,152,109
337,261,153,109
338,262,154,109
339,262,155,108
340,262,155,108
341,263,156,108
341,265,159,106
341,267,161,105
341,268,164,104
341,270,166,103
341,272,169,102
339,272,171,106
338,271,173,111
336,271,176,115
334,271,178,120
332,270,180,124
329,272,185,124
325,274,191,123
322,276,196,123
319,278,201,123
315,280,206,122
329,282,192,121
342,284,178,119
355,286,164,118
369,288,150,116
382,291,136,115
382,292,135,113
381,294,134,111
381,296,133,109
381,298,133,108
380,300,132,106
379,300,131,106
379,299,131,106
378,299,130,106
377,298,129,106
376,298,128,106
376,298,129,106
376,298,130,106
376,298,131,107
376,298,131,107
376,298,132,108
379,298,135,108
382,298,139,108
385,298,142,108
388,298,145,108
391,298,149,108
393,300,151,110
395,301,154,113
397,302,156,116
399,304,159,119
401,305,162,122
402,308,161,122
404,311,160,122
405,314,159,122
406,317,159,122
408,320,158,122
408,319,158,122
408,317,158,122
408,316,158,122
408,314,158,122
408,313,158,122
407,310,158,123
406,307,159,124
405,304,159,125
404,301,159,125
402,298,160,126
400,296,157,125
397,294,155,124
395,291,152,123
392,289,149,122
389,287,147,120
387,289,148,119
385,291,148,118
383,292,149,117
381,294,150,116
378,296,151,115
379,300,151,116
380,303,151,118
381,306,152,119
381,310,152,121
382,313,152,122
382,315,152,122
382,317,152,122
382,318,152,122
382,320,152,122
382,322,152,122
382,322,152,123
383,323,152,123
383,323,151,123
384,324,151,124
384,324,151,124
384,327,152,122
384,330,153,120
384,333,155,119
384,336,156,117
384,339,158,115
384,339,158,117
383,340,158,119
383,340,158,120
382,340,158,122
382,341,158,124
382,340,158,127
382,340,158,129
382,340,158,132
382,339,158,135
382,339,158,137
382,339,158,133
382,339,158,130
382,339,158,126
382,339,158,122
382,340,158,124
383,341,158,125
383,342,158,126
383,342,158,127
384,343,158,129
384,344,158,130
384,344,158,130
384,344,158,130
384,344,158,130
385,344,158,130
385,344,158,130
385,344,158,130
385,344,158,130
385,344,158,130
386,344,158,130
386,344,158,130
387,342,158,130
388,340,158,130
389,338,158,130
390,335,158,130
391,333,158,130
401,328,158,130
410,323,158,130
419,318,158,130
428,312,158,130
438,307,158,130
448,299,159,132
458,291,159,133
468,283,160,135
478,275,161,137
488,267,162,139
490,266,162,136
493,266,162,133
495,265,162,130
498,265,162,127
501,265,162,124
501,268,162,123
502,271,162,121
503,275,162,120
504,278,162,118
504,281,162,117
508,286,156,110
511,290,150,103
514,295,144,96
518,299,138,89
521,304,132,82
521,304,132,82
521,305,132,82
521,306,132,82
521,307,132,82
521,307,132,82
518,308,133,91
514,309,133,100
511,310,134,109
508,310,135,119
504,311,136,128
506,310,136,120
507,310,136,113
509,309,136,106
510,308,136,98
512,307,136,91
514,302,136,85
517,298,136,80
519,293,136,74
522,288,136,69
525,283,136,63
525,288,136,55
526,293,136,47
527,298,136,39
501,289,160,91
501,281,160,106
501,284,160,103
501,287,160,100
501,289,160,98
501,292,160,95
501,294,160,93
500,290,154,93
500,286,149,93
499,282,143,93
499,278,138,93
499,274,132,93
500,273,133,93
502,272,134,94
503,272,135,95
505,271,136,96
506,270,138,96
508,270,138,95
511,270,139,94
513,270,140,93
515,270,141,92
517,270,141,91
510,283,142,95
503,295,142,100
496,308,142,104
489,321,143,109
482,333,143,113
476,337,152,119
469,341,162,124
469,342,162,114
469,344,162,103
469,346,162,93
468,344,172,74
467,342,182,56
486,317,163,82
484,303,163,95
482,289,163,109
482,293,165,106
482,297,166,103
482,302,167,100
482,302,167,108
477,302,156,108
471,302,153,108
466,302,149,108
461,302,146,108
456,302,143,108
451,302,139,108
441,307,137,108
431,312,134,108
421,317,132,108
411,322,129,108
401,328,126,108
392,331,128,109
383,334,130,111
374,337,132,113
365,340,134,115
356,342,136,117
355,347,134,115
355,352,132,113
354,357,130,111
353,362,128,109
352,367,126,108
352,362,128,107
352,357,130,107
352,353,131,107
352,348,133,106
352,343,134,106
352,339,136,106
352,339,136,100
352,339,136,95
352,335,136,98
352,331,136,102
352,331,135,102
352,331,134,101
352,331,133,101
352,331,133,100
352,331,132,100
351,332,132,100
349,332,131,100
347,332,131,100
345,333,131,100
343,333,130,100
341,336,131,102
339,338,132,104
336,341,133,106
334,344,135,108
332,346,136,109
331,346,137,110
330,346,138,112
329,346,139,113
328,346,140,114
326,346,141,115
326,347,142,116
325,348,143,116
324,348,143,117
324,349,144,118
323,350,145,119
323,350,145,119
323,349,145,119
323,349,145,119
323,348,145,119
323,348,145,119
323,348,145,119
323,347,145,119
323,347,145,120
323,347,145,120
323,346,145,120
323,346,145,120
323,345,145,120
323,345,145,120
323,345,145,120
323,344,145,120
323,344,145,120
323,344,145,120
323,344,145,120
323,344,145,120
323,344,145,120
321,344,145,120
320,344,145,120
318,344,145,120
317,344,145,120
315,344,145,120
306,345,148,121
298,347,151,121
289,348,154,122
280,349,157,122
271,350,160,122
260,353,162,122
249,356,165,122
239,359,168,122
228,362,170,122
217,365,173,122
215,365,173,121
214,365,173,119
212,366,173,118
210,366,173,116
208,367,173,115
212,365,173,115
217,364,173,114
221,363,173,114
226,362,173,113
230,361,173,113
239,359,167,112
247,357,162,111
256,354,156,110
264,352,151,109
273,350,145,108
274,351,143,105
275,352,142,102
276,353,141,100
277,354,139,97
278,355,138,95
278,357,139,96
278,358,140,98
278,359,141,99
278,360,142,100
278,361,143,102
277,361,145,102
275,361,146,102
274,361,148,102
272,361,149,102
271,361,151,102
270,361,152,102
269,361,153,103
268,361,154,103
266,361,155,103
265,361,156,104
265,361,156,103
265,361,157,103
265,361,157,103
265,361,158,102
265,361,158,102
265,360,158,102
265,359,158,102
265,360,158,101
265,361,157,100
265,361,157,99
265,362,156,98
265,363,156,96
265,365,156,89
265,368,156,82
265,370,156,74
265,370,155,75
265,370,155,76
265,370,154,76
265,370,153,77
265,370,152,78
265,370,153,77
265,370,154,76
265,370,155,75
265,370,155,73
265,370,156,72
265,370,156,74
265,369,157,75
265,368,157,76
265,367,158,78
265,367,158,79
265,366,158,80
265,365,159,81
265,364,159,83
265,364,159,84
265,363,160,85
265,359,157,86
265,355,154,87
265,351,151,88
265,347,148,88
265,342,145,89
265,343,145,87
265,344,145,85
265,345,145,83
265,345,145,82
265,346,145,80
265,349,144,69
265,352,143,58
265,355,144,54
265,358,144,51
265,361,145,48
265,365,145,45
265,363,145,49
265,360,146,53
264,358,146,57
264,356,147,61
265,356,146,62
265,355,145,63
265,357,145,61
265,359,145,59
265,361,145,58
265,362,145,56
265,363,145,55
265,364,145,54
265,365,145,53
265,367,145,52
265,366,145,53
265,366,146,55
265,365,146,56
265,365,146,58
265,365,147,59
265,364,147,60
265,364,146,60
265,364,146,60
265,363,146,61
265,363,146,61
265,362,146,62
265,362,146,62
265,362,145,62
265,361,145,63
265,361,145,63
266,361,145,63
266,361,144,64
266,361,144,64
266,361,143,64
267,361,143,64
267,361,143,65
267,361,142,65
267,361,142,65
268,361,142,65
268,361,141,66
268,361,141,66
268,361,141,66
269,361,140,66
269,361,140,67
269,361,139,67
269,361,139,67
269,361,139,67
269,361,139,67
269,361,139,67
269,361,139,67
269,361,140,68
269,361,140,69
269,361,141,70
269,361,141,72
269,361,141,73
269,361,142,74
269,361,142,75
269,361,142,77
269,361,143,78
269,361,143,79
269,361,143,80
269,361,144,82
269,361,144,83
269,361,145,84
269,361,145,85
269,361,146,86
269,361,146,88
269,361,147,89
269,361,148,90
269,361,149,91
269,362,155,102
269,363,162,113
259,368,165,114
248,374,168,116
238,380,171,117
224,378,167,117
209,377,163,117
195,376,160,117
181,375,156,117
167,374,152,117
171,368,156,120
175,361,159,123
179,355,162,126
184,349,166,129
188,342,169,132
314,318,141,122
364,289,145,123
414,260,148,124
464,231,151,125
514,202,154,126
534,185,152,120
554,168,150,113
575,152,148,107
595,135,145,101
615,118,143,95
621,118,138,88
627,118,132,82
627,141,130,59
621,164,127,62
615,187,125,65
591,204,137,83
567,220,149,100
535,239,149,111
502,257,150,122
469,276,151,133
426,305,151,126
382,335,151,119
328,328,151,119
275,320,151,119
230,313,151,119
183,299,151,119
136,285,151,119
109,275,154,126
83,265,158,133
56,255,162,141
67,258,150,137
77,261,139,133
88,264,127,129
98,267,116,125
109,269,105,121
119,272,93,117
155,281,104,118
191,291,115,119
226,300,126,120
249,298,130,119
271,296,133,118
293,294,136,117
310,286,139,119
327,278,142,121
345,269,145,124
362,261,149,126
368,254,149,120
375,247,149,114
382,241,149,108
382,241,140,106
382,241,132,104
382,251,121,94
382,261,110,83
368,262,110,83
354,263,110,83
326,256,115,100
297,250,121,117
279,256,121,117
262,263,121,117
232,272,126,113
219,272,116,114
206,272,105,115
193,272,94,116
180,272,84,117
174,272,85,120
168,271,86,122
163,271,87,125
157,271,88,128
151,271,88,131
145,270,89,133
150,268,98,131
155,265,107,129
161,262,116,127
166,260,125,125
171,257,134,122
188,258,136,122
204,258,139,122
221,258,142,122
238,259,144,122
254,259,147,122
274,261,143,118
294,263,138,114
314,265,134,110
334,267,130,106
342,267,127,103
349,268,125,100
357,268,122,97
365,269,119,95
372,270,116,92
380,270,113,89
388,270,92,89
395,270,71,89
402,270,51,89
387,270,65,88
372,270,79,88
356,270,93,87
336,274,87,89
316,278,81,91
296,281,75,93
276,285,69,95
255,280,80,99
234,274,91,103
212,268,101,107
191,263,112,111
169,257,123,115
167,257,126,115
165,257,130,115
164,256,134,115
162,256,138,115
160,255,141,115
173,255,140,112
187,255,139,110
201,255,138,108
215,255,130,108
230,255,122,108
245,255,113,108
260,264,102,100
276,273,90,93
291,281,78,85
282,281,82,87
272,281,85,88
262,281,89,90
253,281,92,91
243,281,96,93
234,281,99,94
224,281,103,96
214,281,106,97
205,281,110,99
195,281,113,100
188,281,115,103
181,280,117,106
175,280,119,109
168,279,121,112
161,278,123,116
154,278,125,119
154,278,130,117
154,278,134,115
154,278,139,113
156,279,144,108
158,280,149,103
160,282,153,98
162,283,158,93
177,278,159,96
192,274,160,99
207,269,161,103
222,264,162,106
238,259,163,109
259,256,146,109
280,254,128,109
298,254,113,109
315,254,97,109
302,251,113,116
289,248,128,123
275,245,144,130
262,242,160,137
259,242,152,137
256,242,143,137
254,241,135,137
251,241,127,137
249,241,119,137
235,249,138,129
221,257,158,120
221,260,162,114
221,262,165,108
221,265,169,102
223,264,169,104
225,263,169,106
226,262,169,108
228,262,169,109
230,261,169,111
232,266,170,109
234,271,170,108
236,276,171,106
249,263,141,126
257,258,127,137
265,254,113,148
272,254,87,153
278,254,60,158
284,254,60,158
289,254,60,158
299,254,41,178
