211,219,29,72
229,217,28,71
245,222,29,71
264,219,29,66
283,217,28,65
297,215,28,65
322,219,28,65
339,218,28,65
358,217,28,65
372,219,28,65
389,219,28,65
409,219,28,65
420,219,28,65
436,216,28,65
436,217,28,71
436,218,27,73
437,218,29,74
437,219,28,73
432,219,34,73
432,219,34,74
435,219,32,74
434,220,33,75
438,217,27,77
438,219,29,74
433,222,34,75
433,222,34,72
433,224,35,71
433,223,34,74
433,222,36,76
433,222,37,77
432,225,38,75
435,224,37,74
436,225,36,74
437,227,36,70
439,227,34,69
442,228,32,69
439,228,35,67
441,229,35,69
439,229,36,67
442,229,34,73
444,229,28,71
444,230,31,69
442,230,37,70
441,230,39,72
439,234,41,75
441,233,44,75
438,230,44,72
446,231,39,76
445,231,38,75
445,231,38,72
447,232,36,71
447,232,36,69
445,235,39,73
445,234,39,71
437,234,47,74
442,235,43,74
443,236,44,69
442,236,45,69
443,236,41,69
444,237,43,67
446,239,41,63
448,239,40,65
437,239,38,66
424,244,38,75
403,244,41,77
393,242,43,77
395,242,41,76
391,244,49,76
395,241,45,79
401,243,36,78
406,244,35,77
410,242,32,79
411,243,34,82
411,244,33,82
414,245,32,80
411,244,36,82
413,246,35,79
415,247,33,81
415,246,33,82
415,247,35,79
414,247,35,81
413,248,36,81
415,250,36,80
414,251,38,81
415,251,39,80
415,250,41,81
415,248,41,84
411,251,45,84
414,253,43,85
414,252,44,84
404,251,43,87
392,254,41,85
379,257,38,84
363,260,39,87
344,262,45,84
332,264,44,85
315,264,46,86
300,267,45,84
305,266,44,86
306,267,39,84
310,266,41,87
308,265,46,88
313,267,41,87
316,267,40,86
317,265,40,90
316,266,44,89
320,267,46,87
319,259,47,88
321,247,41,88
325,235,43,90
328,221,39,91
328,219,44,89
332,221,38,91
333,223,36,92
331,223,46,90
341,224,36,90
339,227,37,90
341,219,36,96
337,214,40,91
337,204,48,93
341,194,44,94
341,194,46,95
343,193,46,96
343,193,48,96
343,193,50,98
354,191,53,98
375,193,55,98
395,195,49,96
409,197,48,99
431,197,48,100
450,195,47,102
468,196,46,101
486,195,49,103
501,196,48,101
522,197,47,96
542,198,48,96
561,198,46,102
579,194,47,101
