439,222,25,43
440,223,25,45
441,224,26,46
443,225,26,47
444,226,26,49
445,227,27,50
451,230,27,50
457,232,27,50
462,235,27,50
470,226,33,51
479,216,40,51
487,207,47,52
489,209,45,50
490,211,44,49
491,214,43,48
493,216,41,46
494,218,40,45
495,220,40,45
497,222,40,45
498,224,40,45
499,226,40,45
501,228,40,45
501,229,40,45
501,229,40,45
502,229,40,45
502,230,40,45
502,230,40,45
507,229,39,45
512,228,38,45
517,228,36,45
522,227,35,45
526,226,36,44
530,226,37,43
533,226,38,42
537,225,39,41
541,225,40,40
538,225,46,43
535,224,51,46
533,224,57,49
530,224,63,52
527,223,68,55
528,227,68,55
529,230,68,55
529,233,68,55
530,237,68,55
531,240,68,55
530,238,69,57
529,237,69,59
529,235,69,61
528,233,70,63
527,232,70,65
531,231,69,63
535,231,67,62
538,231,66,60
542,230,65,58
546,230,63,57
547,229,64,58
548,229,65,59
550,228,66,61
551,227,67,62
552,227,68,63
552,227,70,64
552,227,71,64
552,227,72,64
552,227,74,65
552,227,75,65
551,227,75,65
550,227,75,65
549,227,75,65
548,227,75,65
547,227,75,65
547,228,73,65
546,229,72,65
545,230,70,65
545,231,68,65
544,232,67,65
542,233,69,64
541,234,71,64
539,235,73,63
537,236,75,62
536,237,77,62
533,237,77,60
530,237,77,59
528,238,77,58
525,238,77,56
522,238,77,55
524,238,75,55
525,238,73,56
526,237,72,56
528,237,70,56
529,237,68,57
530,237,68,57
532,237,68,57
533,238,68,57
534,238,68,57
536,238,68,57
537,239,69,55
538,239,69,53
540,239,69,52
541,240,70,50
542,240,70,48
542,238,71,50
542,237,72,51
542,235,73,52
542,233,73,53
545,233,72,53
547,233,71,53
549,232,70,53
552,232,69,53
554,232,68,53
551,232,69,53
548,232,69,53
545,232,69,53
542,232,70,53
539,232,70,53
535,231,67,53
532,231,64,52
528,231,61,51
524,230,58,51
521,230,55,50
515,231,54,50
510,232,53,50
505,233,52,50
499,234,51,50
494,235,50,50
497,237,50,47
501,238,50,45
504,240,50,42
507,242,50,39
511,243,50,37
529,242,49,35
547,241,48,34
565,240,47,33
583,239,46,31
601,238,45,30
610,239,42,31
619,240,40,33
629,241,37,34
638,242,34,35
647,243,32,37
643,242,37,39
639,241,42,41
634,240,48,44
630,239,53,46
626,238,58,48
623,238,55,48
620,238,52,48
617,238,48,48
614,238,45,48
611,238,42,48
598,234,41,47
585,230,40,46
573,226,39,44
560,222,38,43
547,218,37,42
549,218,37,42
550,218,37,42
551,218,37,42
553,218,37,42
554,218,37,42
553,219,37,42
552,220,37,42
551,221,37,42
550,222,37,42
549,223,37,42
550,225,43,45
551,226,49,48
552,227,55,52
553,229,61,55
554,230,67,58
559,232,65,56
565,234,64,54
570,236,63,52
575,238,61,50
581,240,60,48
587,241,54,49
594,242,48,49
601,243,42,49
607,244,36,50
614,245,30,50
609,244,33,51
604,242,36,51
599,241,39,52
594,240,42,53
589,238,45,53
586,237,47,53
583,236,48,53
580,234,50,53
577,233,52,53
574,232,53,53
572,230,53,54
569,228,53,54
567,226,53,54
565,224,53,55
562,222,53,55
562,223,56,55
562,224,58,55
561,226,60,55
561,227,63,55
561,228,65,55
564,228,62,55
567,228,58,55
571,228,55,55
574,228,52,55
577,228,48,55
575,228,52,56
573,228,56,57
571,227,59,58
569,227,63,59
567,227,67,60
567,227,60,59
567,227,54,57
566,228,48,56
566,228,41,55
566,228,35,53
560,228,40,54
555,228,44,55
550,227,49,56
544,227,54,57
539,227,58,58
543,228,53,57
548,229,48,56
552,231,43,54
556,232,38,53
561,233,33,52
562,235,34,51
563,236,35,50
564,237,36,50
565,239,37,49
566,240,38,48
564,240,41,48
563,241,44,48
562,241,46,48
560,241,49,48
559,242,52,48
549,241,53,49
539,240,55,49
529,239,57,50
519,238,58,50
513,238,58,50
507,238,58,50
501,237,58,50
495,237,58,50
489,237,58,50
487,236,58,50
485,235,58,50
483,234,58,50
481,233,58,50
479,232,58,50
475,232,57,49
471,232,55,49
467,233,53,48
463,233,52,47
459,233,50,47
458,234,51,47
458,235,52,48
458,235,53,49
457,236,54,49
457,237,55,50
456,237,55,50
456,238,55,50
455,239,55,50
454,239,55,50
454,240,55,50
449,241,55,49
445,242,56,47
441,243,56,46
436,244,56,45
432,245,57,43
429,247,57,43
426,248,57,43
423,250,57,43
420,252,57,43
417,253,57,43
416,253,57,43
416,253,57,43
415,253,57,43
414,253,57,43
414,253,57,43
412,252,58,45
410,250,59,47
409,248,60,48
407,247,61,50
405,245,62,52
409,245,62,52
412,245,62,52
415,245,62,52
419,245,62,52
422,245,62,52
424,245,62,52
425,245,62,52
427,245,62,52
429,245,62,52
430,245,62,52
435,244,62,52
439,244,62,52
443,243,62,52
448,242,62,52
452,242,62,52
452,241,62,52
452,241,62,52
452,241,62,52
452,240,62,52
452,240,62,52
450,240,63,52
448,240,65,52
446,240,67,52
444,240,68,52
442,240,70,52
445,241,69,51
448,242,67,50
451,243,66,50
454,244,65,49
457,245,63,48
457,246,63,48
456,246,63,48
456,247,63,48
456,248,63,48
455,248,63,48
454,247,63,49
452,246,63,50
450,245,63,51
449,244,63,52
447,243,63,53
446,243,63,53
445,243,63,53
444,242,63,53
443,242,63,53
442,242,63,53
441,242,64,53
440,242,65,53
439,243,66,53
438,243,67,53
437,243,68,53
437,244,68,53
436,245,68,53
436,246,68,53
436,247,68,53
435,248,68,53
434,248,68,53
433,248,68,53
432,247,68,53
431,247,68,53
430,247,68,53
432,244,68,53
433,242,68,53
434,240,68,53
436,237,68,53
437,235,68,53
439,234,67,54
442,233,65,55
444,232,63,55
446,231,62,56
449,230,60,57
449,230,60,55
449,230,61,53
449,230,61,51
449,230,61,49
449,230,62,47
439,232,65,47
429,233,68,48
420,235,72,49
410,237,75,49
400,238,78,50
396,236,77,53
392,234,76,56
387,231,75,59
383,229,74,62
379,227,73,65
381,229,73,65
384,231,73,65
387,233,73,65
389,235,73,65
392,237,73,65
399,236,73,62
405,235,73,60
412,234,72,57
419,233,72,54
425,232,72,52
430,230,72,52
435,229,72,52
439,228,72,52
444,226,72,52
449,225,72,52
445,228,71,52
442,230,70,52
439,233,70,53
435,236,69,53
432,238,68,53
428,240,68,54
425,242,68,54
421,243,67,54
417,245,67,55
414,247,67,55
415,247,66,54
416,247,65,53
417,247,64,53
418,247,63,52
420,247,62,51
421,247,61,50
422,247,60,49
423,247,59,48
424,247,58,48
425,247,57,47
427,247,57,47
429,248,57,47
430,248,57,47
432,248,57,47
433,248,57,47
435,248,57,47
436,247,57,47
437,247,57,47
439,247,57,47
440,246,59,47
442,246,61,47
443,245,63,47
444,245,66,47
446,244,68,47
447,243,70,47
449,243,68,47
452,243,66,47
454,243,63,47
456,243,61,47
458,243,59,47
460,243,57,47
458,245,58,47
456,246,59,47
453,247,60,47
451,249,61,47
449,250,62,47
443,249,62,47
438,248,62,47
433,247,62,47
427,246,62,47
422,245,62,47
420,246,62,47
419,248,62,47
417,249,62,47
415,250,62,47
414,252,62,47
412,252,62,47
411,252,62,47
410,253,62,47
408,253,62,47
407,253,62,47
405,253,62,47
406,253,62,47
407,253,62,47
407,253,62,47
408,253,62,47
409,253,62,47
410,253,62,47
412,253,62,47
414,252,62,47
415,252,62,47
417,252,62,47
418,250,62,47
420,248,62,47
421,247,62,47
422,245,62,47
424,243,62,47
428,242,61,46
433,241,60,45
438,240,60,44
442,239,59,43
447,238,58,42
457,236,57,43
467,233,56,44
477,230,55,46
487,228,54,47
497,225,53,48
505,222,55,49
512,218,57,49
519,215,59,49
527,212,61,50
534,208,63,50
532,212,63,50
529,215,63,50
527,218,63,50
525,222,63,50
522,225,63,50
508,229,66,50
493,233,68,50
478,237,70,50
463,241,73,50
449,245,75,50
435,243,75,50
421,242,75,50
407,240,75,50
393,238,75,50
379,237,75,50
380,237,74,50
381,237,74,51
383,238,73,51
384,238,72,51
385,238,72,52
403,238,72,52
420,237,72,52
437,236,72,52
455,236,72,52
472,235,72,52
493,227,72,52
514,219,72,52
534,211,72,52
555,203,72,52
576,195,72,52
583,195,71,51
590,195,70,51
597,195,69,51
604,195,68,50
611,195,67,50
593,201,67,50
575,208,67,50
557,214,67,50
539,220,67,50
521,227,67,50
498,225,67,50
475,223,67,50
452,222,67,50
430,220,67,50
407,218,67,50
405,217,64,48
403,215,61,45
401,213,58,43
399,212,55,41
397,210,52,38
406,218,52,39
415,225,52,39
424,233,53,39
433,241,53,40
442,248,53,40
469,241,53,40
496,234,53,40
523,226,53,40
550,219,53,40
577,212,53,40
581,207,53,40
585,203,53,40
588,199,53,40
592,194,53,40
596,190,53,40
579,198,53,40
563,207,53,40
547,215,53,40
530,223,53,40
514,232,53,40
483,228,58,41
451,224,63,43
420,220,68,44
389,217,73,45
387,214,72,46
385,212,71,46
383,210,69,47
381,207,68,48
379,205,67,48
385,209,67,48
391,213,67,48
398,217,67,48
404,221,67,48
410,225,67,48
417,225,66,49
424,225,65,49
431,224,64,49
438,224,63,50
445,224,63,50
452,223,62,50
453,223,62,50
453,222,62,50
454,221,62,50
455,221,62,50
455,220,62,50
454,223,62,50
453,227,62,50
451,230,62,50
450,233,62,50
449,237,62,50
448,240,61,50
447,244,60,49
446,248,59,49
445,251,58,49
444,255,57,48
443,251,55,48
443,248,53,47
443,244,52,46
442,240,50,46
442,237,48,45
441,235,49,44
439,234,50,43
438,233,51,42
437,231,52,41
435,230,53,40
433,245,54,41
430,260,54,42
428,274,54,43
425,289,55,45
423,304,55,46
420,319,55,47
424,320,55,47
427,322,55,47
422,288,75,48
430,257,65,48
439,227,55,47
435,162,55,47
432,98,55,47
430,79,55,47
429,60,55,47
427,41,55,47
425,21,55,47
412,38,55,47
400,54,55,47
387,70,55,47
374,86,55,47
371,117,61,57
369,148,67,67
367,178,73,77
364,195,77,78
360,212,81,80
357,228,85,82
351,232,85,82
345,236,84,82
339,240,83,82
331,239,91,82
323,238,98,82
315,237,105,82
320,227,105,82
324,218,105,82
329,208,105,82
331,201,106,83
333,194,106,85
335,187,107,87
337,186,107,87
338,185,107,87
339,185,107,87
341,184,107,87
342,183,107,87
340,186,107,83
338,188,108,80
336,191,108,77
334,193,109,73
330,198,110,77
326,202,112,80
322,207,114,83
319,211,112,79
317,216,110,75
314,221,109,70
311,225,107,66
309,230,105,62
305,231,105,62
302,232,105,62
299,233,105,62
295,234,105,62
292,235,105,62
287,228,105,66
282,222,104,70
277,215,103,74
272,208,103,78
267,202,102,82
271,202,102,80
276,202,101,78
281,202,101,76
285,202,101,74
290,202,100,72
295,203,101,70
300,204,102,68
304,206,102,66
309,207,103,64
314,208,104,62
318,206,103,59
323,204,102,56
328,202,101,53
332,200,100,50
337,198,99,47
343,197,95,44
349,196,92,41
355,194,89,38
361,193,86,35
367,192,83,32
360,201,83,35
354,211,82,38
347,221,81,42
340,230,81,45
334,240,80,48
346,240,76,49
359,240,72,50
372,240,68,50
384,240,64,51
397,240,60,52
404,245,60,52
412,250,60,52
419,255,60,52
426,260,60,52
434,265,60,52
421,268,60,52
408,270,60,52
396,273,60,52
383,276,60,52
370,278,60,52
353,294,73,61
335,309,87,70
357,289,85,70
379,268,83,70
417,211,79,59
455,153,75,48
484,131,71,49
512,108,67,50
520,110,67,50
528,112,67,50
536,113,67,50
493,162,71,51
450,211,76,51
407,260,80,52
391,268,80,57
375,276,80,62
359,283,80,67
364,268,77,62
369,252,75,58
374,237,72,53
375,225,70,51
376,213,68,48
377,202,67,45
370,208,71,45
363,215,76,45
355,222,80,45
356,228,80,48
357,234,80,52
358,240,80,55
359,246,80,58
360,252,80,62
370,252,70,61
380,252,60,60
390,252,50,59
400,252,40,58
397,248,46,61
394,244,52,64
391,240,58,66
388,236,64,69
385,232,70,72
384,232,71,70
382,232,72,69
380,233,73,68
379,233,74,66
377,233,75,65
374,234,76,65
372,234,77,65
369,234,78,65
367,235,80,65
364,235,81,65
362,235,82,65
360,234,82,65
357,233,82,65
355,232,82,65
353,231,82,65
350,230,82,65
349,232,82,62
348,235,82,60
347,237,82,57
346,239,82,54
345,242,82,52
356,243,84,56
367,244,86,61
378,246,88,66
389,247,90,70
399,233,90,68
410,219,89,67
421,205,89,65
431,191,89,63
442,177,88,62
437,184,86,63
433,191,84,65
428,199,81,67
423,206,79,68
419,213,77,70
409,224,73,68
399,235,70,66
390,246,67,64
380,257,63,62
370,268,60,60
370,266,62,59
370,264,63,59
370,262,65,58
370,260,67,57
370,258,68,57
370,255,68,56
369,252,68,56
368,248,67,56
368,245,67,55
367,242,67,55
373,238,68,55
378,234,69,56
384,231,70,56
390,227,71,56
395,223,72,57
403,214,70,54
411,205,69,51
418,195,68,48
426,186,66,45
434,177,65,42
435,183,63,42
436,190,61,42
437,197,58,42
434,205,59,43
431,214,59,44
428,223,59,46
425,231,60,47
422,240,60,48
418,240,61,49
415,241,62,50
411,241,63,50
407,241,64,51
404,242,65,52
402,241,65,52
400,241,65,52
399,241,65,52
397,240,65,52
395,240,65,52
401,241,64,50
407,243,62,48
413,244,61,47
419,245,60,45
425,247,58,43
429,242,58,45
432,237,58,47
435,232,58,49
439,227,58,51
442,222,58,53
435,222,57,53
428,223,56,53
421,224,54,52
414,224,53,52
407,225,52,52
401,226,52,52
394,226,52,52
388,227,52,52
382,228,52,52
375,228,52,52
374,227,53,52
373,226,54,52
372,225,56,53
371,224,57,53
370,223,58,53
375,226,58,51
379,228,57,49
383,230,56,46
388,233,56,44
392,235,55,42
395,233,57,44
399,231,58,46
402,229,60,49
405,227,62,51
409,225,63,53
413,224,62,54
417,222,61,55
421,221,60,55
425,220,59,56
429,218,58,57
432,219,57,56
436,219,56,55
440,219,54,55
443,220,53,54
447,220,52,53
449,221,52,53
450,222,52,53
452,223,52,52
454,224,52,52
455,225,52,52
456,223,53,54
456,221,55,56
456,219,57,59
457,217,58,61
457,215,60,63
457,216,59,63
457,217,58,63
457,218,57,63
457,219,56,63
457,220,55,63
459,222,56,62
460,223,57,61
462,225,58,59
464,227,59,58
465,228,60,57
466,228,60,58
467,227,60,59
468,226,60,60
469,226,60,61
470,225,60,62
468,225,61,62
466,224,62,62
464,224,63,62
462,224,64,62
460,223,65,62
460,224,65,60
460,225,64,59
459,225,64,58
459,226,64,56
459,227,63,55
458,231,63,53
457,235,63,52
456,239,63,50
455,243,63,48
454,247,63,47
453,243,66,48
452,239,68,50
452,235,70,52
451,231,73,53
450,227,75,55
452,224,74,55
454,222,74,55
456,220,73,55
458,217,72,55
460,215,72,55
460,214,72,52
460,213,73,48
460,212,74,45
460,211,74,42
460,210,75,38
461,209,75,42
461,207,74,46
461,206,74,50
462,205,74,54
462,203,73,58
461,204,73,58
460,204,73,58
459,204,73,58
458,205,73,58
457,205,73,58
455,205,73,58
452,205,73,58
450,205,73,58
448,205,73,58
445,205,73,58
444,205,74,60
443,205,74,62
441,205,74,63
440,205,75,65
439,205,75,67
436,205,76,67
434,205,76,67
432,205,77,67
429,205,78,67
427,205,78,67
425,205,78,67
424,204,78,67
422,204,78,67
420,203,78,67
421,204,78,67
422,205,78,67
423,205,78,67
424,206,78,67
425,207,78,67
426,207,78,67
426,207,78,67
426,207,78,67
426,207,78,67
427,207,78,67
427,207,78,67
427,207,78,67
427,207,78,67
427,207,78,67
428,207,78,67
428,207,78,67
428,207,78,67
428,207,78,67
429,207,78,67
429,207,78,67
430,208,78,67
431,209,78,67
432,210,78,67
433,211,78,67
434,212,78,67
436,212,76,66
439,212,74,66
442,212,71,66
444,212,69,65
447,212,67,65
451,212,62,64
455,212,57,63
459,212,53,62
463,212,48,61
467,212,43,60
471,208,43,60
475,204,43,60
479,201,43,60
483,197,43,60
487,193,43,60
488,191,43,60
488,189,43,60
488,187,43,60
489,185,43,60
489,183,43,60
489,187,47,56
489,191,51,53
489,194,54,49
489,198,58,45
489,202,62,42
490,201,62,42
491,200,62,42
492,200,62,42
493,199,62,42
494,198,62,42
493,197,62,42
493,196,62,42
492,194,62,42
491,193,62,42
491,192,62,42
491,192,62,42
491,193,62,42
491,194,62,42
491,194,62,42
491,195,62,42
488,192,63,43
486,190,64,45
484,187,66,47
481,184,67,48
479,181,68,50
479,182,68,50
479,181,68,50
481,180,68,50
481,182,68,50
481,184,68,50
481,187,68,50
481,189,68,50
480,189,68,50
480,188,68,50
480,188,68,50
479,187,68,50
479,187,68,50
480,187,69,50
481,187,69,51
482,187,70,51
483,187,70,52
484,187,70,52
485,187,72,52
486,187,74,52
487,187,76,52
487,187,78,52
488,187,80,52
489,186,80,52
491,186,80,52
492,185,80,52
491,179,77,54
491,173,75,56
491,167,73,59
490,161,71,61
490,156,68,63
488,152,67,63
487,149,66,64
486,146,65,64
484,142,64,65
483,139,63,65
486,134,61,65
490,129,59,64
494,124,57,64
497,120,55,63
501,115,54,63
504,115,54,63
508,115,54,63
511,115,54,63
514,115,54,63
518,115,54,63
518,113,54,63
519,112,54,63
520,110,54,63
521,109,54,63
521,107,54,63
522,106,54,63
522,104,54,63
523,102,54,63
523,100,54,63
523,98,54,63
523,97,54,63
522,96,54,63
521,95,54,63
520,94,54,63
520,93,54,63
519,97,54,63
518,102,54,63
517,107,54,63
517,112,54,63
516,117,54,63
515,127,54,60
514,138,54,57
513,149,54,54
511,160,54,51
510,170,54,48
510,171,54,48
509,173,54,48
508,174,54,48
507,175,54,48
507,176,54,48
507,174,56,49
507,173,59,50
507,171,61,50
507,170,64,51
507,169,67,52
506,167,67,51
505,166,68,50
504,164,69,49
504,163,70,47
503,161,70,46
503,160,70,46
503,159,70,46
503,158,70,46
503,157,70,46
503,156,70,46
503,157,72,45
504,159,73,43
504,160,75,42
504,161,76,40
505,163,78,39
507,163,78,39
508,164,78,39
510,164,78,39
512,164,78,39
514,165,78,39
514,166,78,43
515,167,78,46
515,168,78,50
516,169,78,54
516,170,78,57
515,174,78,57
514,179,78,57
513,183,78,57
511,187,78,57
510,191,78,57
510,193,78,57
509,194,78,57
508,196,78,57
507,198,78,57
507,200,78,57
505,200,78,57
503,200,78,57
501,200,78,57
499,200,78,57
497,200,78,57
496,200,78,57
495,199,78,57
494,199,78,57
493,199,78,57
492,198,78,57
492,198,78,57
493,198,78,57
493,198,78,57
493,198,78,57
494,198,78,57
492,197,77,56
491,196,76,55
489,195,75,53
488,194,75,52
486,193,74,50
486,191,74,50
486,190,74,50
485,188,74,50
485,187,74,50
484,185,74,50
484,185,74,49
484,184,74,47
484,184,74,46
484,184,74,44
484,183,74,43
486,180,73,45
487,177,72,48
489,174,71,50
490,171,70,53
492,169,68,56
492,167,68,54
493,166,67,53
493,165,66,51
493,164,65,50
494,163,65,48
494,164,65,48
494,166,65,48
494,167,65,48
494,169,65,48
494,170,65,48
494,169,65,48
494,167,65,48
494,166,65,48
494,164,65,48
494,163,65,48
493,160,65,51
493,156,65,53
493,153,66,56
492,150,66,59
492,146,67,61
491,146,68,61
491,146,70,60
491,145,72,60
490,145,74,60
490,144,76,59
492,143,76,59
494,142,76,59
497,141,76,59
499,140,76,59
501,139,76,59
503,138,76,59
506,137,76,59
508,137,76,59
510,136,76,59
512,135,76,59
513,133,78,62
514,131,80,64
514,129,81,66
515,126,83,68
516,124,85,70
517,124,83,67
519,124,80,65
520,124,77,62
522,124,75,59
523,124,72,56
524,124,72,56
526,124,72,56
527,124,72,56
528,124,72,56
529,124,72,56
529,123,72,56
529,122,72,56
529,121,72,56
529,120,72,56
529,118,72,56
527,116,72,56
525,113,72,56
523,111,72,56
521,108,72,56
520,106,72,56
526,106,72,56
533,107,72,56
540,108,72,56
546,108,72,56
553,109,72,56
559,108,72,56
565,107,72,56
571,106,72,56
577,106,72,56
577,106,72,57
577,106,73,58
578,106,73,60
578,107,73,61
578,107,73,62
578,107,74,64
579,107,74,65
579,108,74,67
579,108,74,68
579,108,75,69
580,108,75,71
580,108,75,72
580,109,75,73
580,109,76,75
581,109,76,76
581,113,75,73
581,117,75,71
581,121,75,68
581,126,74,66
581,130,74,63
582,133,73,60
583,136,73,58
584,139,72,55
585,141,71,53
586,144,70,50
588,145,71,50
589,145,71,49
591,146,71,49
592,146,72,49
594,146,72,48
594,146,75,50
595,145,78,52
596,144,81,54
597,143,84,56
597,143,87,57
596,143,85,57
595,144,84,57
594,145,83,57
593,146,81,57
592,146,80,57
591,148,78,57
591,149,77,57
591,151,75,57
590,152,74,57
590,154,72,57
586,154,72,57
583,155,72,56
579,156,72,55
575,157,72,55
571,157,72,54
567,154,73,55
563,151,74,55
559,147,74,56
555,144,75,57
551,141,76,57
551,138,75,57
551,136,75,57
551,133,75,56
551,130,74,56
551,128,74,56
550,123,74,56
550,118,74,56
549,113,74,56
548,108,74,56
547,104,74,56
547,103,74,56
547,101,74,56
546,100,74,56
546,99,74,56
546,98,74,56
546,98,73,56
546,97,72,56
546,97,71,56
546,97,70,56
546,96,68,56
546,110,68,56
546,123,68,56
546,136,68,56
546,150,68,56
546,163,68,56
545,185,68,54
545,207,68,53
544,229,68,51
544,250,68,50
544,272,68,48
544,283,68,48
544,293,68,48
545,303,68,48
545,314,68,48
546,324,68,48
547,321,68,48
548,318,68,48
549,315,68,48
550,312,68,48
551,309,68,48
551,307,71,49
550,306,74,49
550,304,76,49
550,302,79,50
549,300,81,50
551,299,80,50
553,297,79,50
555,296,78,50
557,294,77,50
558,293,76,50
557,285,76,50
556,278,76,50
555,270,76,50
554,263,76,50
553,256,76,50
554,251,72,52
556,247,68,53
557,242,64,55
559,238,60,56
560,233,55,57
558,233,59,58
556,233,62,58
554,232,65,59
551,232,69,59
549,231,72,59
551,231,71,59
552,231,71,59
554,231,70,59
555,231,69,59
557,231,68,59
560,232,67,59
564,232,65,59
568,233,64,59
571,233,63,59
575,233,61,59
579,236,60,58
583,238,60,57
587,240,59,56
591,242,58,55
596,244,57,54
598,244,55,54
600,244,53,55
602,244,51,55
604,244,48,55
607,244,46,56
611,242,46,56
616,240,46,56
621,237,46,56
625,235,46,56
630,232,46,56
634,230,46,56
641,229,44,53
648,227,43,50
656,226,41,48
663,225,39,45
670,224,37,43
668,223,39,45
667,223,41,48
666,222,44,50
665,221,46,53
664,220,48,56
660,222,48,56
655,224,48,56
651,226,48,56
646,228,48,56
642,230,48,56
633,231,46,53
624,232,43,51
615,233,41,49
606,235,38,47
597,236,36,45
588,237,33,43
571,230,39,44
554,223,45,46
537,216,51,47
520,209,57,49
503,202,63,50
486,194,68,52
475,191,68,52
463,188,68,52
452,184,68,52
440,181,68,52
429,178,68,52
430,178,69,55
430,178,69,57
431,178,70,60
432,178,70,62
433,178,70,65
452,179,70,64
471,179,70,63
490,180,70,63
510,181,70,62
529,181,70,61
562,185,68,59
596,188,65,57
630,192,63,55
663,195,60,53
697,198,58,50
731,202,55,48
726,205,64,45
720,208,72,43
709,211,67,45
698,214,61,46
686,217,55,48
663,220,55,48
639,224,55,48
616,228,55,48
533,219,55,48
521,209,68,56
519,215,64,53
516,220,60,51
520,237,55,48
477,199,93,72
475,208,87,59
473,217,81,46
487,215,74,48
501,213,66,49
466,241,55,48
520,214,55,48
525,211,65,51
531,207,74,54
538,209,72,53
546,211,70,52
557,213,68,52
568,215,67,51
579,217,65,50
584,219,65,50
589,222,65,50
594,224,65,50
603,223,60,51
612,222,55,53
621,220,50,54
620,220,50,54
618,220,50,54
616,220,50,54
618,219,50,54
621,218,50,54
623,217,50,54
623,220,50,54
622,223,50,54
621,226,50,54
613,230,50,54
604,235,50,54
596,239,50,54
587,243,50,54
578,248,50,54
570,252,50,54
557,252,50,54
545,252,50,54
533,252,50,54
521,252,50,54
508,252,50,54
510,251,50,54
511,251,50,54
512,250,50,54
513,250,50,54
514,250,50,54
515,249,50,54
516,249,50,54
517,248,50,54
518,248,50,54
519,247,50,54
520,247,50,54
521,246,50,54
536,249,50,54
550,251,50,54
564,253,50,54
579,256,50,54
592,256,50,54
605,256,50,54
618,256,50,54
628,248,46,55
639,241,43,56
649,233,39,57
653,231,36,57
657,228,34,57
660,226,31,57
654,222,40,56
647,219,49,55
640,215,57,54
637,215,57,54
635,216,57,54
633,217,57,54
630,216,60,55
628,215,64,56
625,215,67,57
625,219,65,54
625,222,64,51
625,226,63,48
625,230,63,50
625,233,63,51
625,237,63,52
625,241,63,54
626,241,68,57
628,241,74,61
629,241,80,65
633,241,78,66
637,241,77,66
642,241,76,67
651,246,73,63
660,251,70,59
670,256,67,56
673,258,70,53
677,260,73,49
681,263,76,46
684,262,76,49
687,262,76,53
690,261,76,56
692,261,76,56
694,261,76,56
696,261,76,56
697,260,73,56
699,260,70,56
701,259,67,56
697,257,67,57
694,256,67,59
690,254,67,61
686,252,67,63
681,251,64,63
676,249,62,63
671,248,59,63
667,248,55,62
662,248,52,61
657,248,48,59
652,248,47,60
647,248,46,61
642,248,44,61
634,248,46,59
627,248,47,57
620,248,48,56
615,245,55,56
610,242,62,56
605,239,68,56
603,239,68,56
601,239,68,56
599,239,68,56
593,240,69,53
587,240,70,49
581,241,70,46
580,239,72,48
578,236,73,49
577,234,75,51
576,232,76,52
575,230,78,54
581,231,77,53
587,233,75,52
593,235,74,52
599,237,73,51
605,239,72,50
610,240,70,51
614,240,68,52
619,241,67,52
624,242,65,53
629,243,63,54
636,242,64,55
643,242,64,57
650,241,65,58
657,241,66,60
664,241,67,61
661,241,69,61
659,241,72,61
656,241,74,61
654,241,77,61
651,241,80,61
651,237,74,62
651,233,68,63
651,230,63,63
651,226,57,64
651,222,52,65
646,220,55,66
641,219,57,67
636,217,60,68
631,215,63,69
631,216,59,69
631,217,54,69
631,219,50,69
631,223,54,69
631,227,59,69
631,231,63,69
631,235,68,69
631,239,72,69
634,241,70,66
637,243,68,63
640,244,65,61
643,246,63,58
646,248,61,56
642,249,60,56
639,249,59,56
636,249,58,56
632,250,57,56
629,250,55,56
624,249,58,56
618,249,61,56
613,248,64,56
608,247,67,56
603,246,70,56
602,241,67,57
601,237,64,59
600,232,61,61
598,227,58,63
597,222,55,65
598,219,57,63
599,216,58,60
600,212,60,58
600,209,61,56
601,206,63,54
604,210,67,55
606,214,72,56
609,218,76,57
611,222,81,58
614,226,85,59
626,231,81,59
637,236,76,59
648,240,72,59
660,245,67,59
671,250,63,59
680,252,60,59
689,255,57,59
697,257,54,59
702,257,48,60
708,257,42,61
713,257,36,62
718,257,30,63
718,257,30,60
718,257,30,58
718,257,31,55
718,257,31,53
718,257,31,50
714,258,34,50
710,258,36,49
707,259,38,49
703,259,40,49
699,259,43,48
695,257,40,48
690,255,38,48
686,253,36,48
681,250,34,48
677,248,31,48
668,242,37,53
659,236,42,57
650,230,47,62
641,224,52,66
633,219,57,70
633,220,61,71
633,222,65,72
633,224,68,72
639,230,64,67
646,235,60,62
653,241,55,57
664,244,49,57
675,246,43,57
686,249,37,56
697,252,31,56
699,249,31,56
701,247,31,56
703,244,31,56
705,244,31,56
707,244,31,56
708,244,31,56
707,245,31,56
706,246,31,56
705,246,31,56
704,246,31,56
704,246,31,56
703,246,31,56
697,243,31,56
691,240,31,56
684,237,31,56
684,234,31,56
684,231,31,56
684,228,31,56
686,210,33,59
688,192,35,63
690,174,37,67
695,156,39,68
700,137,42,69
705,118,44,70
707,110,51,67
708,101,58,63
710,93,65,59
721,89,65,59
733,85,65,59
744,81,65,59
746,85,67,61
747,89,70,62
749,93,72,63
756,95,71,63
763,98,70,63
770,100,68,63
781,106,62,61
792,112,55,58
803,118,48,56
799,121,53,50
794,123,58,45
790,126,63,39
796,130,63,39
801,135,63,39
807,139,63,39
817,138,65,40
826,136,68,41
836,135,70,43
834,138,78,50
831,141,85,57
847,135,80,57
