81,214,26,47
85,212,29,50
84,214,29,50
87,214,29,50
90,213,29,50
93,212,27,52
92,214,32,49
95,215,29,49
95,214,32,51
98,213,29,50
101,214,30,50
104,214,28,50
106,213,29,52
106,213,32,52
111,213,30,51
111,214,30,51
114,213,32,52
118,214,31,52
120,214,28,49
122,215,31,51
124,214,28,52
126,214,31,50
126,215,34,50
131,214,28,50
133,214,29,52
134,214,29,51
137,215,29,52
137,214,30,54
138,217,30,50
138,216,31,50
142,216,30,50
142,216,29,50
143,216,31,52
146,216,30,51
147,216,31,53
148,216,30,52
148,217,33,52
150,216,32,55
152,216,30,51
152,218,31,52
156,217,30,50
157,219,30,50
159,219,30,51
157,217,32,54
160,218,30,53
161,219,32,50
163,219,31,52
163,218,32,51
168,219,30,53
167,219,32,54
170,219,32,51
172,220,31,52
173,219,30,53
173,219,34,52
177,221,32,52
176,220,33,53
178,219,32,54
176,221,34,53
178,221,35,52
181,220,30,53
182,221,32,53
183,221,30,53
182,222,32,56
185,222,30,53
186,222,29,55
184,223,30,54
187,222,32,52
186,224,32,53
187,222,31,55
185,224,33,54
190,223,32,56
190,224,32,55
189,224,34,56
189,223,33,56
192,225,32,58
192,225,31,56
193,225,32,55
194,225,31,55
196,225,30,54
194,225,32,56
195,225,31,58
193,225,32,56
195,225,32,58
196,227,32,56
197,226,32,57
196,226,31,58
196,226,33,58
197,228,33,53
197,227,34,55
196,227,33,56
198,228,32,56
197,229,31,58
199,229,32,57
200,228,29,56
200,226,33,58
201,228,33,60
200,229,31,58
200,229,33,59
199,229,37,57
202,228,31,59
201,229,33,58
203,230,31,57
203,230,31,59
204,230,29,56
204,229,30,61
201,230,35,58
204,230,29,56
201,230,32,59
205,230,30,59
205,230,29,58
206,232,32,58
207,231,31,57
209,231,30,57
202,243,0,0
211,235,28,56
209,233,31,58
210,234,30,56
207,235,31,59
210,235,32,56
211,235,29,58
210,235,30,58
210,236,29,59
210,235,31,56
210,236,32,60
206,236,33,59
210,235,33,60
209,238,35,58
211,237,35,60
209,237,36,60
210,239,35,57
212,240,33,56
211,240,33,57
211,238,35,60
210,238,36,61
209,239,36,59
207,239,39,60
207,240,36,61
210,239,37,61
209,240,38,61
210,241,36,60
211,241,36,60
209,241,39,63
211,241,35,61
209,241,37,63
210,241,37,62
207,241,41,64
209,242,41,64
211,242,37,63
212,242,36,63
211,242,39,65
212,243,37,63
210,244,41,62
214,245,35,61
211,244,41,62
213,245,38,62
213,246,40,65
215,246,39,65
211,245,43,64
213,245,39,65
215,246,37,69
212,246,43,66
216,246,36,64
215,245,38,67
216,248,35,64
215,246,36,68
216,249,35,64
214,248,36,66
214,248,37,67
214,248,38,68
214,250,36,67
216,250,37,66
213,250,38,68
213,250,38,67
213,251,38,67
213,250,37,66
215,250,35,67
214,252,38,67
215,251,35,67
214,251,39,68
214,251,38,69
217,252,36,67
215,253,39,68
216,253,37,67
215,252,40,71
215,253,41,70
216,255,38,69
217,253,39,72
217,254,38,69
218,254,40,70
218,256,40,69
217,256,40,70
215,256,41,69
216,256,41,72
218,256,41,71
221,257,40,70
220,257,41,71
219,259,40,71
222,258,39,71
220,260,38,71
221,259,39,71
222,260,37,73
221,258,40,72
225,262,41,71
225,263,40,69
227,262,38,72
228,262,39,73
228,262,41,74
228,265,43,71
227,263,41,73
227,266,43,71
229,265,43,73
231,267,41,73
232,266,45,72
232,266,41,72
233,267,44,76
234,268,41,72
233,268,45,72
232,267,41,74
231,268,45,75
234,270,46,74
235,272,40,73
232,271,48,74
237,271,41,73
235,273,43,74
234,274,41,76
233,272,46,78
236,273,44,75
235,273,44,78
234,276,46,77
235,277,46,77
235,274,46,78
234,276,49,77
237,278,45,76
237,278,45,78
242,278,43,76
240,279,39,77
238,279,45,77
240,280,40,77
237,281,46,77
238,282,44,78
239,281,44,78
240,283,41,78
239,283,44,79
237,283,47,79
242,284,45,79
237,283,51,82
243,285,46,87
244,286,45,79
243,286,47,79
245,286,46,82
246,288,47,81
243,288,50,82
243,288,50,82
243,288,49,84
246,291,45,81
248,290,43,82
251,291,41,82
248,290,47,83
249,293,46,82
248,293,52,80
251,293,48,84
251,293,47,83
251,293,52,84
250,293,51,88
255,297,45,83
259,296,45,86
258,295,45,89
260,297,44,86
256,298,48,84
256,298,50,85
261,297,43,87
262,301,46,86
266,301,51,86
262,302,50,85
266,300,47,88
268,301,44,88
271,302,41,87
268,303,45,87
271,303,45,88
272,304,46,88
272,304,44,90
276,306,46,87
279,307,48,87
281,305,45,91
283,307,47,89
284,308,50,91
286,307,50,91
284,309,49,90
290,308,48,93
290,312,52,90
294,310,50,92
295,310,51,93
301,311,49,93
304,311,48,93
308,311,48,93
312,314,45,93
315,313,49,94
319,312,53,98
323,314,52,94
329,315,52,97
331,315,50,94
342,316,50,96
342,315,53,96
348,317,53,96
352,319,56,93
356,318,55,96
355,319,55,96
360,319,54,97
369,320,51,97
375,322,55,94
380,322,52,95
387,325,53,93
388,325,56,95
394,324,54,98
398,325,54,96
401,327,57,93
412,326,53,98
416,327,54,95
420,327,53,97
427,328,55,98
431,330,57,98
433,330,60,100
442,330,52,98
443,330,55,101
452,329,53,98
455,332,57,98
461,332,55,99
466,332,60,99
474,334,55,100
479,335,54,100
482,335,56,102
468,337,63,98
459,336,59,96
446,336,57,106
429,339,63,101
422,341,59,103
419,340,63,104
433,338,61,108
437,340,61,104
448,341,61,105
452,340,57,106
459,342,57,103
461,341,59,105
465,344,59,104
470,346,60,104
477,342,59,106
479,345,63,103
487,346,61,106
491,346,61,106
494,345,59,108
478,346,61,108
464,348,62,107
455,350,56,108
444,351,66,108
432,352,60,107
426,351,63,108
411,354,62,106
397,354,66,108
380,354,63,108
372,356,63,108
360,357,61,111
349,361,59,110
336,361,55,113
322,363,62,111
310,363,60,114
296,367,68,114
286,367,60,112
273,367,65,114
265,367,63,114
249,373,63,108
243,375,69,106
258,373,61,108
