0,367,70,39
0,366,70,39
8,365,63,42
8,368,66,37
10,364,70,43
13,363,70,42
16,359,68,46
18,358,71,46
19,357,73,46
26,355,68,45
29,355,68,47
34,354,63,45
39,353,63,46
44,351,47,38
47,352,45,40
52,350,47,39
53,348,44,41
58,344,40,42
60,345,37,40
68,335,39,44
70,334,39,43
66,332,37,44
74,333,32,39
70,327,45,44
76,326,45,46
84,324,47,43
97,322,34,41
104,319,40,40
107,317,42,40
112,310,44,47
115,310,49,50
115,311,52,50
117,308,50,51
134,304,44,49
134,302,55,46
133,295,47,44
130,289,45,48
126,285,49,50
0,0,0,0
128,276,50,49
123,272,55,64
126,273,45,50
118,269,52,56
120,269,50,52
120,269,47,58
120,273,50,54
117,274,45,54
123,288,42,41
133,292,40,43
134,291,50,45
141,289,47,46
146,295,45,40
152,296,47,37
157,290,45,41
159,288,49,41
159,285,44,42
157,283,52,41
162,282,52,43
160,282,57,46
157,280,60,46
162,280,55,47
162,284,53,36
162,284,63,39
167,287,65,39
165,286,71,40
168,282,73,44
168,283,73,44
175,286,68,40
175,286,70,39
178,283,70,42
176,284,68,39
178,283,74,42
183,285,74,42
188,284,66,42
191,284,70,42
194,283,68,43
196,282,71,43
196,279,71,43
199,281,68,41
204,278,68,42
202,279,68,40
209,275,70,45
210,274,66,41
222,276,68,36
225,271,66,42
233,267,66,43
240,265,62,43
236,263,68,45
238,265,68,42
240,262,68,47
244,261,65,48
249,262,63,47
251,260,63,47
254,262,60,49
259,261,65,47
262,260,65,49
262,258,66,45
267,257,70,46
274,256,65,48
277,257,68,47
280,256,74,50
283,258,70,48
287,260,66,47
288,261,74,44
293,263,66,44
296,260,60,44
296,259,65,46
298,257,65,45
293,255,70,45
293,257,68,42
295,255,63,44
295,256,66,42
295,257,71,44
290,255,73,45
295,255,68,43
293,254,73,44
293,253,70,42
295,251,68,42
298,252,68,44
298,251,73,43
301,249,65,47
303,252,73,45
304,251,65,45
304,253,70,44
306,252,66,47
309,252,70,49
311,253,66,49
311,251,71,49
311,256,68,45
312,255,70,44
316,253,68,45
316,252,73,46
319,255,66,48
314,260,70,45
319,268,70,40
325,267,65,44
325,271,70,44
329,273,63,46
337,282,58,42
342,283,58,46
342,290,58,42
343,293,60,41
342,296,62,42
343,296,58,45
343,297,58,47
343,300,58,43
342,298,58,46
343,303,57,46
337,304,57,42
327,314,62,34
325,309,63,43
322,312,66,38
330,313,60,41
332,313,62,40
329,314,65,38
329,313,57,36
329,314,55,35
330,317,55,34
322,316,58,36
316,318,66,35
311,317,68,35
306,320,70,32
303,316,65,32
293,314,68,33
298,314,62,36
293,320,60,24
303,317,58,29
295,321,60,34
301,317,70,33
295,331,55,29
303,330,40,20
306,332,42,19
317,332,47,23
324,326,52,27
332,325,45,31
330,327,52,28
327,325,58,30
329,320,65,33
322,323,73,30
327,320,70,35
324,319,76,33
335,311,68,35
338,311,68,35
345,306,65,41
348,302,66,41
356,300,60,43
363,295,62,49
361,296,66,48
374,295,58,47
376,295,65,46
380,288,71,53
384,288,68,48
392,288,65,49
397,284,60,52
393,282,73,51
397,280,74,45
401,281,68,46
405,276,71,46
410,277,68,46
410,278,71,44
411,279,71,43
414,275,65,48
411,277,65,42
406,275,73,48
406,276,71,46
401,278,76,45
403,275,71,45
403,274,65,48
395,278,73,41
384,279,78,44
379,277,81,47
376,284,74,42
366,285,78,44
366,292,71,45
363,297,71,41
361,306,71,34
358,313,76,32
353,318,78,29
353,320,74,25
351,324,78,20
351,323,76,18
350,322,78,22
343,324,86,21
350,322,81,21
351,325,78,20
353,326,78,20
356,325,78,20
353,327,79,20
358,326,79,18
356,325,78,21
355,325,81,19
356,322,78,21
356,322,81,20
359,321,79,21
363,320,78,21
359,319,81,19
363,319,79,21
363,321,81,18
367,319,81,20
367,318,81,21
376,316,78,21
377,313,79,23
385,312,76,24
389,314,81,21
397,311,78,23
405,312,79,23
410,311,81,20
413,312,79,20
419,314,74,19
416,315,79,17
423,312,78,18
