425,62,116,77
422,60,117,81
422,56,115,84
419,56,116,84
420,53,112,83
419,52,111,85
419,52,113,87
419,52,113,87
419,54,113,85
419,56,111,88
417,57,116,91
418,57,117,93
414,59,123,93
418,59,120,98
419,61,120,98
417,61,121,102
420,59,120,105
420,62,120,103
418,62,124,103
419,64,125,98
417,63,129,103
418,62,130,102
420,63,126,99
418,62,129,100
423,62,129,98
423,61,128,100
425,61,126,98
425,59,127,99
427,60,125,96
425,59,129,94
425,53,129,95
423,48,132,99
426,51,125,85
423,47,128,90
422,51,125,90
421,54,122,98
420,59,123,99
418,62,125,100
419,71,121,98
419,70,122,100
427,73,120,95
426,73,121,97
423,75,124,95
424,77,123,89
425,73,120,91
425,73,124,92
428,71,123,96
426,70,125,92
430,69,124,94
429,69,123,94
433,75,121,86
433,78,123,84
434,77,119,86
428,73,122,88
424,71,129,93
427,69,122,87
423,71,125,91
426,68,123,93
424,69,127,90
422,71,129,90
421,68,125,93
419,70,123,94
418,70,127,92
418,70,129,93
418,70,126,91
417,68,129,93
417,67,127,90
418,66,127,94
418,65,126,96
418,64,126,96
417,64,128,93
410,61,134,99
411,62,132,98
416,61,129,98
433,73,116,83
440,74,110,83
434,71,119,88
438,73,113,84
441,73,114,84
443,73,123,82
445,71,121,84
445,71,120,78
448,73,121,78
451,67,115,87
454,66,118,88
458,66,113,84
461,67,111,81
464,65,112,85
469,64,111,88
470,61,112,89
469,62,115,86
471,60,118,90
470,57,119,93
475,59,115,90
474,61,117,91
476,61,115,88
475,61,118,88
474,64,115,86
472,62,117,88
470,62,112,88
468,61,115,86
468,61,114,87
467,61,115,87
467,61,117,88
467,59,117,88
464,58,119,92
465,61,116,88
463,58,118,91
466,57,114,93
465,57,117,93
463,55,117,91
463,56,118,93
463,56,118,88
461,55,120,91
459,55,122,91
459,57,122,88
460,55,121,90
459,55,120,92
459,55,119,90
458,57,119,92
455,56,121,90
459,56,116,89
461,57,113,89
453,58,123,87
454,58,121,88
455,59,121,91
461,61,113,88
461,61,115,90
463,61,116,88
466,68,114,84
469,70,109,84
467,69,114,98
469,76,114,90
463,75,120,106
467,80,117,108
459,86,124,108
458,105,119,107
466,121,116,98
467,133,120,98
470,142,125,98
485,163,109,88
490,172,108,82
492,180,119,85
494,183,123,88
498,185,127,88
498,186,126,88
501,185,126,92
501,184,129,94
503,185,131,94
506,185,134,99
510,185,135,99
511,190,137,98
518,192,135,98
524,195,132,100
530,195,127,108
538,199,120,104
542,198,112,108
546,210,107,98
543,212,115,98
540,216,119,97
538,213,122,102
536,219,122,97
538,218,115,99
538,223,107,97
534,225,104,95
530,224,102,97
527,226,98,98
529,229,88,94
525,234,82,96
525,232,66,89
531,238,45,82
532,245,31,77
531,250,23,66
527,256,16,64
521,252,21,62
520,244,27,68
521,243,27,66
518,243,34,67
517,246,37,73
517,244,38,74
518,248,35,69
512,250,40,66
512,252,39,65
517,254,36,63
516,254,42,62
525,252,36,60
536,254,27,62
542,254,27,62
550,250,23,67
561,244,15,72
569,239,15,67
569,234,20,64
571,226,19,66
569,221,26,64
564,195,42,88
552,188,66,90
539,194,86,90
532,196,98,84
520,199,118,80
512,205,128,84
501,207,138,93
491,209,145,98
489,209,144,102
489,212,140,106
491,211,134,113
494,216,122,111
501,217,110,114
501,221,104,109
505,233,98,103
514,232,82,100
516,234,80,105
519,235,77,99
517,237,82,85
517,237,85,89
519,236,90,88
516,233,98,92
512,233,108,90
511,236,116,88
520,236,117,88
527,236,108,89
531,237,108,87
532,237,97,85
535,233,85,86
534,231,73,81
532,228,63,84
522,223,76,78
511,226,84,53
495,224,101,45
467,211,151,57
467,200,129,70
459,189,154,88
459,185,140,94
459,187,139,93
456,190,135,102
455,195,138,102
452,200,147,99
459,211,144,99
465,222,142,93
478,228,135,89
492,232,120,88
498,234,119,88
494,235,126,90
494,230,128,98
492,229,131,98
489,226,139,101
489,220,138,108
492,218,128,108
494,216,121,112
500,218,110,109
493,213,118,112
488,223,129,98
481,230,140,84
483,234,131,77
490,225,107,88
519,218,61,88
521,226,53,81
527,226,33,84
523,212,41,95
525,219,42,89
525,234,41,73
540,239,44,74
526,221,93,105
521,221,115,103
509,225,139,100
514,227,129,101
523,230,108,100
533,233,87,94
540,236,73,95
545,237,69,95
545,240,69,87
542,243,81,83
533,237,98,89
522,235,114,91
518,232,117,93
516,234,107,89
526,228,73,97
536,223,53,92
532,234,34,76
521,236,26,64
518,228,20,65
511,209,36,65
490,203,76,65
458,195,126,70
456,191,148,76
458,186,121,77
461,185,141,82
478,183,128,77
480,188,129,74
488,189,120,72
488,188,125,71
490,194,123,64
490,194,129,57
486,195,134,51
480,196,139,47
474,195,143,47
470,197,149,46
466,196,144,51
461,195,148,56
459,196,148,57
457,197,143,63
456,195,145,66
454,196,146,71
458,194,139,78
455,195,139,78
458,199,129,80
458,199,131,82
456,199,137,86
456,199,140,84
458,199,137,85
456,201,143,80
456,199,146,87
457,195,144,86
458,195,146,83
450,196,151,81
453,196,139,78
450,203,134,76
443,203,138,77
446,207,134,70
481,195,120,81
462,196,144,78
459,196,147,77
457,196,145,83
461,196,140,83
462,197,142,80
458,199,147,78
458,191,148,89
460,194,142,82
454,193,146,87
458,191,144,81
452,188,148,84
450,187,150,80
454,185,143,81
449,189,150,81
447,187,149,84
441,186,151,78
437,186,147,76
432,185,159,78
432,185,157,78
430,183,155,80
428,183,148,81
425,183,142,80
419,183,133,81
414,182,140,81
414,179,134,82
412,180,131,80
406,180,139,80
408,181,139,79
405,178,138,81
398,183,140,77
396,175,139,84
396,177,144,82
397,175,139,80
401,175,135,80
397,174,135,84
400,172,133,80
402,172,126,86
395,179,121,77
399,163,132,88
410,161,118,87
408,154,122,88
399,153,126,87
397,155,138,80
397,154,141,84
395,154,142,78
395,147,141,81
394,146,155,91
385,151,151,75
374,150,159,77
390,150,140,73
377,147,155,72
377,146,155,73
377,146,155,75
381,146,157,70
381,143,156,76
387,143,151,74
385,144,154,71
393,145,147,67
394,146,143,64
396,143,144,67
395,146,147,65
396,144,145,67
405,144,141,68
405,142,144,68
396,143,157,67
403,139,149,68
399,141,153,67
398,139,152,67
401,139,155,69
403,137,146,67
405,138,144,68
396,143,155,63
396,143,156,62
394,143,159,60
396,142,153,63
396,143,156,62
397,140,155,65
396,143,159,68
397,145,157,67
399,144,157,65
401,143,152,69
401,144,151,68
399,144,157,64
399,144,158,65
398,145,156,74
392,145,140,71
389,143,149,73
391,144,150,71
393,144,143,74
389,143,136,73
388,143,148,77
388,144,157,76
392,143,148,76
389,147,132,74
390,146,137,77
387,145,139,77
395,146,155,77
391,146,159,74
391,149,149,75
389,155,156,67
392,154,151,61
388,155,154,58
391,156,151,63
388,150,155,76
388,148,151,77
386,148,150,83
387,159,150,77
381,162,146,75
377,162,136,76
370,163,146,77
368,166,145,76
366,164,147,80
364,164,140,81
363,164,144,83
361,165,139,82
361,163,142,84
361,164,144,81
362,161,133,78
368,162,129,79
366,160,131,79
366,162,129,67
368,164,125,66
366,164,131,64
368,160,131,72
365,163,116,62
363,158,115,66
372,163,112,66
376,164,111,67
377,169,100,67
365,168,127,71
370,164,119,74
372,163,112,81
375,158,101,88
379,155,88,93
384,161,76,95
394,169,58,71
387,144,62,82
391,142,63,88
362,143,96,119
354,143,106,118
339,146,120,115
332,154,136,107
321,155,146,102
319,156,148,105
321,171,131,92
320,173,126,92
319,172,126,98
314,174,129,98
303,174,136,104
305,172,123,111
314,182,89,98
330,197,44,88
319,194,56,89
302,185,59,69
271,186,107,88
250,186,118,79
235,191,125,70
233,191,118,74
246,194,99,71
250,195,94,70
257,195,96,67
263,195,100,65
279,194,102,73
287,189,115,81
310,185,113,78
330,175,124,83
354,172,131,81
366,159,151,82
377,161,132,88
388,144,155,90
401,143,154,67
409,143,150,57
414,143,145,53
421,144,126,49
432,147,87,46
441,154,98,48
443,157,82,53
419,159,86,55
387,148,109,68
383,146,97,77
374,150,88,77
365,154,65,81
352,164,51,75
325,176,27,76
308,175,35,83
296,179,36,82
275,179,47,91
275,181,46,97
258,159,74,108
242,161,104,106
233,166,126,101
232,173,125,87
238,174,119,94
244,172,111,98
277,180,49,87
284,195,32,91
289,203,26,84
292,204,34,77
280,183,65,82
272,177,94,100
264,177,104,91
263,177,98,88
260,173,92,88
257,168,86,102
254,168,76,104
262,169,59,112
267,174,46,114
268,185,40,106
272,201,33,97
283,215,26,83
286,216,22,80
294,221,26,69
299,224,20,68
305,224,26,72
306,225,38,77
306,233,40,72
294,221,60,77
284,217,64,82
270,216,66,82
255,217,64,81
228,205,77,88
205,199,88,87
170,190,109,95
153,174,117,115
137,177,129,111
128,179,134,106
122,174,141,112
128,176,141,107
139,185,135,98
155,191,124,94
173,194,113,88
195,192,98,90
207,188,102,95
222,182,108,90
232,181,126,72
234,182,134,69
274,166,94,75
287,168,77,82
294,148,59,100
289,138,90,112
275,140,103,113
272,146,102,121
267,157,98,113
264,163,96,119
263,175,84,111
263,189,63,110
268,205,40,99
261,214,29,89
248,222,42,83
226,217,67,91
210,208,80,98
193,212,98,95
180,206,114,97
165,204,127,98
155,200,138,107
155,200,140,108
169,197,127,108
182,201,113,108
192,205,105,106
199,208,107,102
213,208,102,104
216,213,116,99
230,213,129,101
250,212,128,100
274,210,115,102
305,210,88,99
348,209,46,105
370,197,50,104
350,182,82,101
343,173,105,116
335,155,123,130
333,152,151,142
332,146,152,140
334,145,158,141
339,143,146,144
339,146,139,144
343,186,73,108
331,199,77,91
319,196,57,101
284,186,82,119
250,192,109,113
212,193,140,112
197,195,150,108
195,201,129,109
201,205,109,105
202,208,102,108
202,213,97,108
195,217,108,105
191,224,121,114
188,228,135,109
184,233,144,123
184,236,152,123
190,236,155,127
193,240,162,128
207,239,157,128
219,236,150,133
230,234,137,139
253,226,113,143
268,219,109,138
269,221,126,126
269,221,136,119
270,219,145,107
271,216,145,104
271,216,152,97
272,218,151,90
271,218,152,88
271,221,158,96
270,223,157,103
270,226,154,108
268,226,155,117
267,229,158,112
266,231,160,110
271,229,158,108
272,225,157,108
281,214,144,112
290,204,129,122
303,197,106,125
312,195,97,128
315,190,81,132
314,187,82,139
311,189,98,131
301,186,117,129
297,188,131,120
299,190,137,111
306,189,136,101
312,185,136,103
316,177,138,109
319,178,138,108
323,185,138,99
328,188,133,98
334,180,122,117
343,181,108,122
359,185,87,125
365,192,88,111
353,202,120,107
356,208,126,94
348,212,148,82
346,203,149,99
347,201,145,106
350,201,133,112
350,206,123,115
339,209,129,119
327,223,132,109
316,239,135,98
308,252,135,86
301,254,127,95
296,254,117,100
294,251,104,108
290,253,98,114
290,250,82,116
284,249,75,129
283,252,69,106
284,253,60,103
275,243,71,111
263,244,95,108
261,240,113,105
257,245,122,95
257,245,129,88
257,244,128,85
261,243,128,93
263,241,123,95
267,240,118,98
268,239,119,98
271,239,121,96
273,238,124,89
272,236,129,88
275,237,133,87
279,234,131,86
283,236,131,82
284,236,129,74
288,230,139,81
294,226,137,87
308,217,132,96
321,212,126,106
331,210,123,110
345,210,120,106
352,208,123,105
356,210,131,95
356,213,143,88
362,221,167,80
362,221,170,77
365,216,153,77
361,217,155,90
365,217,180,81
363,221,157,66
366,220,160,66
362,219,170,67
362,217,167,77
361,216,166,71
358,216,169,71
360,221,154,68
356,220,149,83
357,224,148,77
356,223,145,75
354,224,161,67
350,219,155,73
350,219,157,71
352,223,154,66
356,225,151,66
355,228,165,69
358,235,160,74
357,230,123,86
352,232,150,88
350,234,153,100
347,239,145,103
345,244,151,107
341,247,140,106
339,247,136,107
337,250,139,108
334,252,139,105
334,257,148,104
328,262,158,104
321,265,149,95
323,264,139,89
315,270,136,76
313,276,132,75
304,269,131,70
303,269,131,61
303,268,131,50
305,267,133,57
296,267,138,57
292,268,139,53
290,268,139,55
292,267,138,48
288,266,142,56
301,265,135,49
287,262,156,54
299,263,146,53
314,262,136,57
321,263,127,55
311,259,136,63
313,257,136,52
318,259,128,50
320,261,128,62
319,259,134,58
319,257,135,60
321,259,130,61
318,257,129,66
319,263,123,64
314,267,129,69
310,260,133,85
305,268,133,85
294,268,139,95
287,274,125,93
271,279,134,93
256,281,132,95
241,278,121,106
222,279,140,107
208,270,141,119
208,267,129,124
230,263,100,129
264,265,57,124
268,270,50,119
264,265,47,120
252,268,89,109
294,252,111,123
299,247,133,123
300,247,134,125
312,251,126,119
328,257,99,101
334,261,98,98
344,267,80,88
335,253,81,98
350,257,64,99
359,254,52,88
370,252,51,91
373,245,48,89
369,237,63,93
365,230,54,98
361,225,57,98
356,212,67,103
350,206,79,100
348,197,79,115
342,191,93,111
340,186,94,121
337,181,98,122
339,183,97,119
339,185,98,111
337,183,101,117
334,179,108,119
338,181,105,118
337,185,106,111
334,183,110,117
347,194,89,108
341,181,89,117
345,177,89,115
348,179,101,115
346,184,107,109
345,181,111,106
346,181,111,106
346,185,114,100
347,185,117,104
348,191,117,98
347,200,119,88
348,206,126,77
343,212,132,77
338,213,138,79
335,213,145,81
334,212,144,85
335,213,146,85
337,217,141,85
345,217,138,84
345,216,140,82
348,213,135,88
356,211,128,87
363,212,121,84
365,213,124,81
366,216,116,80
375,217,107,78
381,214,102,88
385,217,98,86
390,226,102,87
392,228,113,88
393,230,124,98
408,236,125,101
421,240,117,110
428,247,127,111
443,250,126,111
448,257,133,108
459,262,132,108
470,268,126,99
478,270,126,98
481,269,119,100
484,274,122,93
483,273,120,97
485,270,121,102
483,270,115,102
490,268,104,95
490,267,93,97
487,267,94,96
483,261,99,95
470,256,115,100
459,251,131,97
458,248,136,90
459,247,133,87
462,244,124,81
458,242,123,79
457,239,129,80
456,236,126,89
458,248,131,91
470,234,127,82
491,227,97,85
512,236,66,78
538,243,37,80
540,245,32,80
536,239,40,81
525,246,67,91
515,249,90,89
505,256,115,78
502,263,125,66
501,266,125,57
506,270,134,44
516,269,133,43
523,267,120,51
529,263,115,63
535,260,108,72
536,258,110,77
438,327,147,99
459,320,150,107
490,321,139,100
517,319,141,98
549,314,127,93
573,312,122,90
598,308,106,85
614,306,101,79
628,309,96,75
628,299,101,84
629,297,102,88
618,297,109,87
602,301,109,89
589,307,108,89
554,312,128,94
523,321,134,90
493,323,141,99
457,325,150,104
432,334,149,95
389,329,163,100
356,322,168,103
333,310,143,113
307,296,153,119
290,292,145,108
281,283,128,103
280,282,99,92
281,277,86,79
273,276,81,79
288,272,73,54
290,274,67,67
308,283,53,55
321,278,51,59
332,274,50,72
334,296,50,60
337,293,62,56
346,278,60,78
357,281,50,78
370,278,46,75
379,276,36,78
387,282,35,79
382,286,37,72
382,291,35,77
382,296,38,91
383,302,34,88
380,309,39,86
377,310,43,84
379,309,46,84
379,308,44,85
381,307,40,86
383,309,46,79
380,314,41,78
387,315,37,72
382,310,45,85
379,318,45,82
376,316,44,78
383,321,38,91
385,323,36,91
383,319,39,88
381,318,47,90
377,318,51,89
375,305,52,106
370,304,51,108
367,312,57,93
365,313,62,96
366,314,65,92
365,307,74,97
364,304,78,108
361,307,77,97
362,309,85,100
361,302,87,99
368,305,87,102
372,301,88,106
382,294,88,115
392,305,78,108
389,307,88,107
394,299,80,118
402,304,77,110
418,299,62,113
425,303,57,112
432,298,53,113
430,298,52,111
434,296,50,100
424,310,88,91
428,315,94,79
430,314,108,80
432,316,117,78
436,315,122,77
449,310,113,78
456,307,112,83
460,303,110,86
464,301,112,86
470,301,114,80
474,303,119,75
469,307,135,64
461,299,156,74
470,301,152,75
474,287,139,91
484,285,119,95
507,279,79,112
516,292,66,99
524,279,54,108
518,273,62,109
515,277,67,99
509,289,75,87
498,294,85,80
492,288,89,82
489,286,93,86
484,284,96,86
481,285,98,80
481,281,94,82
484,283,88,77
482,281,86,76
482,280,87,74
485,274,82,77
482,273,86,77
484,264,81,84
485,269,80,75
490,265,76,75
491,266,75,77
491,267,72,70
493,268,74,68
491,265,76,70
486,264,83,71
489,268,82,66
473,268,95,67
480,267,92,70
477,265,94,71
477,267,94,73
466,269,102,72
449,263,118,75
469,263,102,77
469,264,97,81
465,263,98,82
462,263,97,84
463,261,95,84
459,257,102,90
454,251,102,95
446,250,111,97
446,248,112,96
450,250,108,95
449,245,106,100
448,247,104,97
449,247,103,98
449,247,105,95
445,243,108,99
439,239,111,100
438,236,112,103
439,237,106,95
435,232,108,102
429,230,112,101
425,229,113,99
428,228,108,97
427,226,110,98
425,224,111,98
427,223,108,99
426,223,106,102
418,223,117,101
430,223,105,97
426,230,108,93
422,234,112,84
426,239,108,77
423,241,111,75
414,246,119,67
414,245,119,71
414,250,116,67
414,250,116,67
412,251,109,72
410,248,105,77
415,252,96,77
418,261,97,70
422,266,85,68
419,267,89,67
430,270,82,66
428,270,86,64
423,271,97,65
418,269,105,65
424,274,98,64
434,285,93,61
439,290,83,54
430,297,77,54
428,292,82,55
439,286,86,59
428,294,81,55
440,292,80,52
452,270,109,55
454,267,111,59
463,258,106,67
461,252,113,80
470,252,108,81
479,247,101,83
480,245,102,88
485,244,97,92
487,245,97,87
485,247,98,82
485,250,98,78
484,254,101,71
482,257,105,68
477,257,110,66
469,255,119,69
475,257,114,69
476,257,113,74
481,257,106,74
487,254,98,77
500,252,80,81
509,247,73,83
511,248,68,85
516,247,67,89
521,247,66,86
521,246,65,87
525,245,58,83
529,243,54,88
533,245,49,81
542,245,42,84
549,244,30,83
554,241,26,86
558,241,25,85
566,243,21,85
573,242,15,79
574,246,37,81
565,245,61,82
562,242,82,82
560,243,98,77
565,247,111,67
558,250,110,67
573,255,104,51
573,257,105,40
573,257,107,38
574,259,106,37
575,264,107,34
576,266,100,30
566,262,111,48
571,260,117,61
562,258,104,63
571,257,86,73
576,263,65,77
587,267,41,80
594,274,39,76
589,279,52,71
593,277,51,76
601,280,41,71
601,277,47,74
594,274,63,78
582,272,86,84
583,278,93,81
576,281,110,76
578,281,109,75
585,284,112,71
593,281,113,72
590,276,125,72
598,274,123,74
597,257,125,91
607,250,111,99
621,250,79,95
634,270,57,64
602,267,94,70
586,257,121,89
576,255,131,96
569,251,139,99
573,250,134,98
584,247,127,94
593,251,120,83
618,257,90,71
642,265,69,52
634,244,87,77
622,239,108,88
614,236,120,102
610,240,125,100
602,247,127,93
592,261,123,77
589,268,120,71
584,276,90,64
578,280,88,61
562,279,84,61
534,276,93,62
512,268,89,63
483,265,91,62
458,261,111,76
427,267,122,64
433,265,98,58
401,248,141,80
420,249,102,64
419,249,82,59
408,251,69,65
412,254,63,60
414,246,53,69
412,234,53,79
407,230,57,74
403,223,60,81
397,218,66,81
398,217,61,80
397,214,65,82
402,217,61,77
407,212,57,88
416,212,57,89
423,217,58,83
435,231,49,71
449,228,45,77
459,232,45,75
471,231,34,94
480,242,42,96
487,250,50,93
491,252,68,95
498,261,88,88
506,262,107,91
512,261,120,93
527,256,126,102
536,253,133,105
544,251,136,108
555,245,136,108
564,246,131,105
580,243,119,106
594,245,108,98
607,253,85,79
614,258,81,71
623,261,77,67
599,253,96,72
591,254,94,73
575,254,108,86
551,255,128,94
541,250,126,100
526,250,129,102
516,246,126,111
508,249,123,114
497,249,123,114
485,252,122,108
470,254,126,108
456,251,129,109
449,249,128,106
438,246,133,108
436,245,127,108
431,244,129,108
429,245,131,105
425,246,129,103
421,245,135,100
414,245,135,97
414,244,131,98
411,244,133,96
408,247,134,97
406,247,132,91
405,247,129,90
405,247,129,89
401,241,129,95
402,241,127,93
392,240,133,95
392,238,131,95
396,242,126,92
389,241,130,91
388,242,129,91
385,241,133,89
379,239,133,93
381,241,129,89
378,238,129,90
374,239,129,84
372,234,133,88
373,234,129,86
377,232,124,88
376,230,128,87
376,229,128,90
375,230,126,88
372,228,128,91
375,232,129,88
375,236,127,82
376,236,128,79
378,241,125,77
379,244,125,72
379,241,123,73
384,242,121,71
382,243,120,60
385,239,119,64
381,239,122,59
388,241,123,60
390,241,111,46
392,245,117,42
381,242,129,42
387,243,128,36
400,243,114,35
400,241,114,33
419,241,124,33
424,242,110,28
412,240,109,30
436,240,93,33
433,241,94,27
428,243,84,26
426,244,83,23
423,243,75,20
422,243,73,22
432,243,67,22
432,242,71,26
427,242,81,30
411,244,92,32
408,247,102,26
397,247,102,28
390,247,95,26
385,247,109,28
387,250,106,29
397,249,112,31
406,254,108,31
407,256,105,36
418,262,96,39
418,261,90,52
427,263,95,67
425,266,93,71
428,270,92,73
432,270,93,73
434,274,101,70
439,275,106,71
437,278,119,71
442,276,119,78
447,272,119,87
451,272,121,88
461,269,118,91
471,267,108,94
480,265,102,98
489,261,90,102
494,257,86,98
505,255,72,99
511,252,66,103
511,249,62,105
513,260,61,95
515,257,54,77
517,256,46,77
518,257,43,73
521,257,30,73
523,258,29,70
525,247,23,74
521,250,27,72
526,257,21,64
519,263,30,69
523,261,19,68
520,245,31,82
514,241,39,84
509,232,52,94
502,232,61,89
499,234,76,89
492,236,79,83
487,239,90,81
481,239,104,81
476,241,111,84
476,241,112,89
471,241,119,91
473,244,118,91
472,244,119,97
470,248,119,93
468,251,119,88
467,254,119,92
468,257,120,92
471,258,119,92
466,257,122,91
465,259,125,92
465,259,123,97
463,259,129,97
467,265,126,98
461,261,130,100
463,263,132,102
463,265,134,101
464,262,135,105
466,267,131,103
467,267,131,104
469,270,126,96
470,270,123,97
473,273,121,92
475,272,119,90
480,274,113,93
496,274,96,91
515,277,65,101
532,280,51,82
520,278,62,83
502,274,102,91
482,272,123,97
485,268,115,101
486,265,96,110
490,265,84,108
488,266,76,104
480,267,82,100
470,267,90,91
462,272,97,75
456,276,103,61
449,275,112,54
446,283,103,43
418,282,129,43
412,279,131,44
412,280,129,43
401,279,135,51
399,276,135,60
397,276,143,67
397,273,149,76
398,271,147,78
400,271,146,82
408,272,139,79
411,274,139,80
418,274,135,80
422,275,130,81
425,270,132,87
425,278,128,75
418,281,119,73
421,275,127,64
423,271,133,72
425,275,131,67
423,274,134,67
423,272,132,71
422,278,123,71
425,279,111,62
429,281,108,60
434,285,107,60
439,281,109,59
432,275,112,65
441,286,107,62
443,280,108,62
455,279,105,59
459,273,98,63
418,276,115,77
414,272,127,78
414,268,135,82
412,267,138,84
412,269,140,79
413,268,139,83
410,268,143,79
414,271,139,78
412,267,135,84
415,266,129,85
414,269,124,83
416,276,120,75
414,279,117,73
416,276,111,75
414,278,101,67
418,276,104,68
414,274,139,78
411,276,139,68
412,276,137,67
412,275,139,66
414,274,138,67
414,277,137,68
415,278,133,67
414,278,128,59
418,272,119,66
414,270,114,66
411,272,118,69
414,273,115,67
410,268,115,67
415,276,105,58
418,272,104,64
415,269,127,67
424,278,125,69
432,275,111,63
439,283,122,59
441,272,112,63
455,279,107,65
449,284,114,63
452,282,106,63
454,283,109,62
456,276,101,60
465,282,96,56
452,283,102,63
456,281,96,57
450,285,117,66
449,281,119,62
457,281,108,63
452,273,104,66
450,276,108,61
439,276,113,62
438,277,111,61
444,276,103,60
418,280,117,68
424,287,108,67
430,290,104,61
421,288,116,65
415,285,120,67
414,280,119,74
410,279,131,77
413,280,123,77
405,278,125,77
409,274,121,75
412,278,115,70
410,272,108,74
408,282,123,71
410,281,126,67
410,274,137,77
412,276,137,79
408,273,142,80
412,265,139,90
410,268,137,86
410,265,135,88
411,274,121,81
410,277,124,77
413,277,127,77
418,276,122,79
413,277,125,79
419,278,116,77
422,282,111,72
420,283,114,66
433,281,114,73
421,283,132,76
428,284,124,77
428,288,120,75
436,282,117,72
435,287,122,69
423,282,128,70
435,290,113,67
431,291,123,69
430,281,119,67
428,282,120,70
433,288,116,64
408,287,111,69
409,283,118,73
406,279,140,75
409,274,138,82
408,275,139,82
407,274,139,84
407,270,139,85
407,270,140,87
407,271,139,86
414,275,132,83
416,278,128,79
405,281,140,77
405,279,139,79
408,284,136,75
405,287,139,73
408,288,138,71
408,287,138,73
407,285,137,74
406,283,140,73
408,286,132,70
407,283,134,74
417,288,114,71
410,283,116,73
418,287,115,73
406,293,112,71
404,294,108,69
396,292,111,71
392,288,114,72
394,290,117,71
396,288,109,68
397,290,117,63
398,286,114,72
397,284,117,75
390,288,119,73
391,288,114,69
405,282,124,79
414,288,120,75
416,281,113,70
414,285,116,75
414,286,118,70
412,286,131,74
417,279,129,76
419,277,126,83
420,276,121,80
410,274,137,82
412,275,139,82
414,278,133,77
416,277,126,77
415,287,123,71
416,288,119,68
413,285,121,69
412,281,119,68
418,290,117,67
419,289,117,69
406,291,123,70
405,287,124,69
404,283,116,67
397,285,130,69
401,287,129,64
403,283,119,66
396,281,133,67
388,282,135,72
388,285,139,73
388,284,139,74
394,287,137,69
401,288,131,70
399,293,124,68
402,296,126,68
406,298,126,69
397,295,119,68
403,294,128,64
397,285,127,70
397,284,130,75
388,271,139,79
401,257,142,73
405,252,137,74
408,251,134,76
409,249,130,76
408,247,137,74
410,245,133,76
409,247,137,74
408,244,133,74
410,241,131,75
404,241,139,70
403,237,138,74
397,237,130,78
403,244,122,72
407,248,128,75
396,235,104,70
390,231,123,77
393,217,121,88
390,216,123,90
388,214,128,91
388,213,128,93
392,219,126,96
392,227,129,88
396,236,126,84
408,244,115,83
415,255,110,83
421,263,107,80
425,270,104,79
423,280,106,76
425,283,108,80
422,290,110,83
428,299,105,80
421,294,113,85
423,299,111,73
417,298,119,91
426,308,116,83
414,310,120,84
410,311,118,78
401,271,105,77
405,281,105,73
406,285,112,67
399,288,100,68
397,288,100,67
422,297,123,74
439,306,112,67
443,305,117,73
459,312,104,75
487,309,90,88
501,309,73,88
492,309,91,88
501,312,71,80
508,312,56,73
512,319,61,66
510,319,57,66
514,319,50,64
521,316,54,67
508,304,73,75
501,296,82,88
490,292,105,97
487,290,111,98
477,285,121,98
478,282,121,100
474,279,122,98
469,278,124,96
465,273,120,97
457,272,123,93
447,264,122,96
439,264,119,96
427,262,122,90
418,258,121,89
412,260,123,83
407,257,123,82
403,257,123,84
393,256,127,84
394,263,135,82
392,274,131,77
383,266,129,76
382,257,140,82
382,258,134,83
379,257,142,85
387,256,130,78
387,263,133,75
381,265,128,75
383,258,142,84
380,258,141,76
383,258,137,75
381,259,139,72
383,261,134,73
383,261,139,75
380,263,134,77
375,268,134,70
378,268,127,74
372,267,124,75
372,265,123,73
376,270,121,73
376,276,117,69
379,281,108,71
377,286,116,67
369,284,110,69
360,284,116,76
354,283,113,73
366,290,119,73
387,287,116,71
393,286,112,71
407,292,108,67
403,283,123,67
414,283,116,64
415,280,110,68
405,282,108,66
407,274,119,74
382,270,121,77
381,261,137,77
381,264,134,79
386,264,130,79
381,263,132,80
385,263,129,80
394,267,120,77
377,267,137,80
377,266,138,79
377,268,135,78
374,267,144,78
374,266,143,76
380,262,134,78
379,262,136,77
383,265,123,78
387,271,128,77
396,273,119,68
390,267,119,71
384,268,119,70
387,265,122,72
398,272,117,67
403,270,114,64
403,268,115,66
407,269,111,70
402,271,115,67
399,270,119,69
399,274,115,69
397,275,111,70
396,268,119,77
400,268,116,74
397,268,117,70
410,274,109,67
404,271,106,65
399,269,119,72
397,266,121,74
401,270,123,66
400,265,112,62
407,267,113,61
406,265,100,57
399,263,108,60
405,257,119,68
399,261,113,60
418,264,98,61
413,267,112,65
409,271,104,61
410,276,113,66
417,281,108,58
406,275,118,65
402,276,121,69
403,280,122,63
408,279,102,59
391,272,104,62
383,272,107,66
386,276,101,60
386,282,96,57
377,283,100,63
377,287,91,61
374,278,98,62
374,279,96,59
374,280,97,63
368,277,108,64
372,278,97,57
388,278,90,56
393,278,89,60
397,277,86,57
405,274,91,57
408,265,113,66
405,261,108,48
403,254,115,60
405,257,111,53
397,258,123,61
385,257,129,60
387,256,125,64
391,247,127,72
395,254,113,72
396,258,125,70
407,261,110,65
410,263,108,58
412,263,108,62
408,260,118,60
405,262,105,60
397,262,111,58
396,261,111,64
396,263,104,58
403,263,105,64
405,269,91,54
407,268,89,57
399,270,98,53
410,275,100,56
404,267,97,58
411,266,90,59
410,274,106,60
403,278,106,67
380,261,137,75
377,261,139,71
379,263,139,69
381,257,137,72
379,257,140,73
381,256,139,74
380,259,136,69
385,256,134,75
382,259,136,69
382,259,138,78
382,259,138,78
382,259,138,78
382,259,138,78
382,259,138,78
382,259,138,78
382,259,138,78
382,259,138,78
382,259,138,78
382,259,138,78
382,259,138,78
382,259,138,78
382,259,138,78
382,259,138,78
382,259,138,78
382,259,138,78
382,259,138,78
382,259,138,78
382,259,138,78
382,259,138,78
382,259,138,78
382,259,138,78
382,259,138,78
382,259,138,78
382,259,138,78
382,259,138,78
382,259,138,78
382,259,138,78
382,259,138,78
382,254,138,82
385,255,132,73
381,252,137,77
383,248,137,81
381,252,135,77
382,253,134,81
379,256,134,77
379,256,134,77
379,256,134,77
379,256,134,77
379,256,134,77
379,256,134,77
379,256,134,77
379,256,134,77
379,256,134,77
379,256,134,77
379,256,134,77
379,256,134,77
379,256,134,77
379,256,134,77
383,256,135,74
379,258,139,72
381,258,137,74
380,251,143,79
381,255,137,77
379,250,135,77
381,250,138,76
384,250,138,76
379,247,140,79
383,249,137,76
381,247,139,78
382,248,139,77
383,247,137,76
383,250,135,75
383,247,137,77
385,248,141,75
387,250,139,75
387,251,133,73
387,249,135,77
382,248,139,75
388,246,135,80
388,249,137,75
387,249,139,75
385,248,139,78
387,249,139,74
389,246,135,77
388,252,137,73
387,251,131,77
388,251,129,76
385,250,138,77
388,249,138,75
387,248,133,78
387,247,135,77
387,249,136,73
384,248,140,75
387,248,136,75
383,243,139,80
385,247,136,78
383,248,139,77
381,245,139,80
383,247,138,75
386,248,134,74
383,247,133,75
382,247,136,77
381,245,139,77
381,245,134,78
380,247,139,73
381,241,137,84
383,243,135,80
382,244,134,78
385,243,132,75
383,242,137,78
384,241,134,78
385,241,131,77
386,247,132,71
381,241,138,78
384,245,136,75
384,245,136,75
378,249,138,70
382,249,133,72
381,251,131,70
381,251,131,70
381,251,131,70
383,257,120,76
383,255,135,77
380,258,141,68
377,256,137,72
381,257,130,66
375,257,139,70
377,257,138,72
376,255,142,76
375,257,143,74
374,256,138,74
375,257,130,71
380,258,123,68
381,261,107,62
379,258,118,65
385,261,115,69
380,258,127,74
381,259,131,70
379,260,127,68
379,260,127,68
379,260,127,68
379,260,127,68
379,260,127,68
379,260,127,68
379,260,127,68
379,260,127,68
379,260,127,68
379,260,127,68
379,260,127,68
379,260,127,68
379,260,127,68
379,260,127,68
379,260,127,68
379,260,127,68
379,260,127,68
379,260,127,68
379,260,127,68
379,260,127,68
379,260,127,68
379,260,127,68
379,260,127,68
379,260,127,68
379,260,127,68
379,260,127,68
379,260,127,68
379,260,127,68
379,260,127,68
379,260,127,68
379,260,127,68
379,260,127,68
379,260,127,68
379,260,127,68
379,260,127,68
379,260,127,68
379,260,127,68
379,260,127,68
379,260,127,68
379,260,127,68
379,260,127,68
379,260,127,68
379,260,127,68
379,260,127,68
379,260,127,68
379,260,127,68
379,260,127,68
379,260,127,68
379,260,127,68
379,260,127,68
379,260,127,68
379,260,127,68
379,260,127,68
379,260,127,68
379,260,127,68
379,260,127,68
379,260,127,68
379,260,127,68
379,260,127,68
379,260,127,68
379,260,127,68
379,260,127,68
376,250,127,76
373,251,135,67
367,243,134,78
361,241,137,78
361,241,137,78
361,241,137,78
361,241,137,78
361,241,137,78
361,241,137,78
361,241,137,78
361,241,137,78
361,241,137,78
361,241,137,78
361,241,137,78
361,241,137,78
361,241,137,78
361,241,137,78
361,241,137,78
361,241,137,78
361,241,137,78
361,241,137,78
361,241,137,78
361,241,137,78
361,241,137,78
361,241,137,78
361,241,137,78
361,241,137,78
361,241,137,78
361,241,137,78
361,241,137,78
361,241,137,78
361,241,137,78
361,241,137,78
361,241,137,78
348,236,119,84
346,231,125,94
350,230,117,93
348,227,107,98
357,225,97,100
353,228,95,100
353,223,90,100
352,223,87,95
346,218,86,100
353,216,75,98
363,221,60,91
366,214,55,91
371,213,46,93
375,214,43,88
383,221,22,85
388,219,18,83
383,211,42,92
372,215,57,87
368,216,72,88
364,220,81,88
364,219,90,97
355,221,105,92
353,217,116,97
347,221,127,93
348,219,130,95
348,217,129,100
346,221,126,92
339,219,132,93
335,221,135,93
328,220,137,90
328,220,137,90
328,220,137,90
328,220,137,90
328,220,137,90
328,220,137,90
335,219,132,88
333,224,138,81
330,221,139,84
335,218,137,88
339,217,133,88
345,219,129,88
339,219,137,89
346,221,130,92
346,221,133,93
346,221,135,93
355,216,129,98
351,218,132,97
354,218,131,96
351,221,137,93
357,219,131,97
363,219,129,91
365,219,126,94
365,219,128,91
364,219,123,88
366,218,123,90
361,222,129,86
359,223,129,84
362,223,128,82
363,221,126,80
362,224,126,81
363,226,128,80
367,226,123,80
367,228,127,75
370,229,126,77
365,230,131,73
370,231,122,77
375,232,118,76
370,232,123,77
376,236,133,73
376,236,133,73
376,236,133,73
376,236,133,73
376,236,133,73
376,236,133,73
376,236,133,73
376,236,133,73
376,236,133,73
376,236,133,73
376,236,133,73
376,236,133,73
376,236,133,73
376,236,133,73
376,236,133,73
376,236,133,73
377,244,126,64
376,244,124,57
374,241,133,67
374,241,133,67
374,241,133,67
374,241,133,67
374,241,133,67
375,247,125,63
370,245,131,64
371,250,130,57
368,250,137,58
370,254,128,60
369,251,129,63
369,252,132,67
365,252,138,64
366,257,137,61
359,259,144,60
365,257,139,66
368,261,137,60
369,260,130,61
368,259,127,67
373,259,134,66
366,265,143,62
366,267,145,59
370,261,141,64
370,261,141,64
370,261,141,64
370,261,141,64
370,261,141,64
402,274,130,62
399,270,134,72
408,272,133,74
423,272,120,79
418,273,132,80
427,275,120,78
423,274,126,83
421,275,129,81
427,278,125,81
