538,140,75,223
531,140,83,223
534,140,70,221
539,141,67,219
532,140,67,220
529,138,64,220
528,138,63,221
526,138,63,219
521,138,66,218
521,138,67,217
517,136,69,221
513,143,71,217
514,142,73,219
512,143,74,218
510,143,75,217
510,143,75,217
509,143,78,216
509,143,78,216
506,141,79,217
506,141,79,217
503,143,78,216
503,143,78,216
507,143,70,215
507,143,70,215
501,145,73,213
501,145,73,213
500,145,75,212
501,144,74,213
501,143,74,215
501,143,74,214
501,144,74,213
500,143,74,215
500,143,74,215
500,144,74,213
500,143,74,215
500,143,74,215
500,143,74,215
500,143,74,215
500,143,74,215
500,143,74,215
500,143,74,215
500,142,74,215
500,142,74,215
500,142,74,215
500,142,74,215
500,142,74,216
500,142,74,216
497,147,74,211
497,147,74,211
494,146,81,211
494,146,81,211
498,145,75,212
495,144,79,213
495,144,79,213
498,145,75,212
498,145,75,212
494,146,80,211
494,146,80,211
496,147,78,211
496,147,78,211
495,144,79,211
495,144,79,211
493,145,80,212
494,144,79,213
494,144,79,213
495,143,75,212
495,143,75,212
494,145,80,211
497,143,75,212
498,143,73,215
498,143,73,215
497,143,76,211
497,143,76,211
497,142,74,213
497,143,75,214
496,142,74,215
496,142,74,215
496,142,75,213
496,142,75,213
496,145,75,210
492,143,78,214
495,143,80,213
495,144,76,213
495,144,76,213
495,144,76,213
494,146,81,211
496,144,78,212
495,144,78,212
495,144,78,212
495,145,76,211
495,145,79,211
494,145,80,212
494,145,80,212
494,144,79,213
494,144,79,213
494,144,78,213
496,143,76,214
495,144,76,212
494,143,78,211
494,144,81,211
495,145,78,210
495,143,74,214
497,143,75,214
494,143,79,213
495,143,74,213
494,146,79,210
493,143,83,213
493,143,82,213
493,143,81,212
495,143,75,213
495,143,75,213
491,142,84,213
491,142,84,213
493,143,81,212
493,143,81,212
493,142,83,213
493,142,83,213
495,143,76,212
495,143,76,212
492,143,81,213
492,143,82,213
492,143,82,213
490,143,82,213
494,145,75,209
491,145,83,210
492,144,81,212
492,143,78,212
488,144,84,212
494,145,76,211
490,144,80,211
493,146,74,208
492,147,75,209
489,144,79,211
489,145,76,210
490,144,73,211
488,143,74,211
487,144,72,209
484,144,74,208
487,143,73,212
487,145,68,206
487,143,68,210
483,145,72,209
483,145,70,206
483,143,71,211
482,144,72,210
479,145,73,207
481,143,70,210
479,145,74,206
480,146,72,206
479,145,74,207
478,143,74,209
476,143,76,211
472,142,80,213
472,143,80,211
469,142,81,211
466,143,78,211
467,143,75,211
465,142,71,211
462,141,70,212
463,142,68,212
461,142,69,212
459,142,69,211
459,142,68,214
456,140,69,213
453,142,69,213
449,142,71,211
445,142,75,212
445,142,71,214
445,142,72,213
441,142,75,212
438,141,76,214
437,139,76,216
437,141,76,214
433,140,76,216
432,141,76,214
429,139,76,216
428,140,76,216
427,139,76,216
427,139,70,217
422,139,69,218
421,139,69,218
421,139,69,218
420,139,69,218
420,139,69,218
418,139,69,218
418,139,69,218
418,139,69,218
414,139,70,219
413,139,70,220
413,139,70,220
410,138,71,222
409,138,71,223
409,138,71,223
409,138,71,223
408,137,71,224
407,136,71,225
407,136,71,225
405,134,72,227
404,133,73,228
403,132,74,229
402,133,78,228
401,131,76,230
401,133,75,228
401,133,75,228
399,131,79,232
399,131,79,232
397,136,80,232
397,136,80,232
394,133,82,233
394,133,82,233
392,131,82,236
392,131,82,236
391,129,81,237
391,129,81,237
388,128,81,237
388,128,81,237
389,126,84,240
389,126,84,240
387,126,84,243
387,126,84,243
390,128,84,245
390,128,84,245
393,127,81,247
393,127,81,247
398,126,79,249
398,126,79,249
401,122,80,253
402,121,80,255
402,120,80,256
403,118,80,258
403,117,80,259
405,117,80,259
407,117,80,259
409,117,80,259
411,117,80,259
413,117,80,259
414,117,80,259
418,117,81,263
419,117,85,266
419,117,86,268
421,114,85,272
421,113,84,272
424,114,86,272
426,112,82,274
429,113,83,272
430,111,85,275
433,108,84,278
435,107,84,279
436,106,85,281
436,106,93,279
440,108,100,284
442,110,110,283
445,111,112,287
448,109,114,286
452,111,114,286
454,111,113,290
456,108,108,293
459,108,103,293
465,107,95,295
469,110,96,294
469,105,97,299
471,105,97,299
474,106,97,299
479,105,97,299
477,106,101,299
486,103,95,303
482,103,102,306
489,103,92,308
489,105,96,306
494,103,92,308
495,103,93,308
499,105,89,308
504,102,90,310
510,103,90,310
510,103,90,310
516,102,90,310
522,101,88,314
524,99,86,313
524,97,88,315
523,102,91,313
523,101,100,312
526,100,95,313
525,95,100,319
527,102,95,310
527,102,96,312
528,99,95,313
528,103,97,310
530,101,97,312
529,104,100,309
529,102,99,312
530,103,98,312
531,101,98,314
533,102,96,306
530,104,97,301
535,103,93,305
533,103,96,301
535,103,93,302
537,103,92,304
535,103,93,303
538,103,91,303
541,103,88,304
542,103,87,301
544,103,85,303
547,103,82,300
550,103,79,298
552,108,78,298
551,107,78,299
555,107,75,298
552,109,76,296
554,111,76,293
552,110,76,296
552,109,76,293
554,108,75,294
