106,372,39,88
107,372,41,93
107,372,42,95
107,372,44,97
107,372,45,99
109,372,45,99
110,372,45,99
111,372,47,100
112,372,48,101
112,373,48,101
113,373,48,101
113,374,48,101
114,375,48,101
115,375,48,101
109,373,48,101
104,373,48,101
100,373,48,101
101,374,47,102
102,375,47,103
103,375,46,104
104,376,45,105
103,377,48,106
103,377,50,107
102,378,53,107
101,378,53,107
101,378,53,107
101,378,53,107
100,377,53,107
100,377,53,107
100,377,53,107
100,377,53,107
99,377,53,107
99,377,53,107
99,377,53,107
98,377,53,107
96,377,53,107
95,378,53,107
94,378,53,107
93,378,53,107
92,379,53,107
90,379,53,107
79,379,53,107
68,380,53,107
60,382,53,107
56,383,48,110
53,385,48,110
51,386,48,110
40,385,48,110
33,388,48,110
28,388,48,110
15,390,48,110
2,390,44,112
2,390,38,114
2,390,32,112
2,390,27,110
2,390,26,110
2,390,24,109
2,390,23,109
2,390,22,109
2,390,20,108
2,390,19,108
2,390,18,107
2,391,18,108
2,391,19,108
2,392,19,109
2,393,20,109
2,393,20,109
2,394,21,110
2,395,21,110
2,395,22,111
2,396,22,111
2,397,23,111
2,397,23,112
2,398,24,112
2,399,25,113
2,399,25,113
2,400,26,113
2,401,26,114
2,401,27,114
2,402,27,114
2,403,28,115
2,403,28,115
2,404,29,116
2,405,29,116
2,405,30,116
2,406,30,117
2,407,31,117
2,407,31,118
2,408,32,118
2,409,33,118
2,409,33,119
2,410,34,119
2,411,34,120
2,411,35,120
3,412,35,120
3,412,44,121
17,409,44,132
25,408,44,132
33,406,46,132
17,407,72,137
32,409,72,137
40,409,73,142
62,410,64,144
73,412,62,144
85,412,62,144
92,413,62,144
96,413,62,144
105,413,62,144
120,412,62,144
130,412,62,144
140,412,62,144
147,411,62,144
160,412,62,144
169,412,62,144
180,412,62,144
190,413,62,144
214,411,55,140
221,411,55,140
231,411,55,138
252,416,44,137
263,415,44,137
270,413,45,137
280,413,48,136
290,413,52,136
300,416,52,136
312,413,52,136
324,415,45,132
334,417,45,132
349,414,49,133
350,415,58,132
354,413,66,132
364,414,72,132
370,411,75,132
376,412,78,132
394,413,78,132
403,413,78,132
416,413,78,132
439,409,69,132
446,408,69,137
457,408,69,137
459,408,69,137
483,406,63,141
494,408,63,141
504,409,63,141
513,409,63,141
521,409,63,141
529,409,63,141
537,406,65,141
550,408,65,141
561,404,65,141
566,404,65,141
579,406,65,141
581,404,65,141
594,409,65,141
605,408,62,129
616,406,62,129
622,406,61,126
629,406,60,124
638,406,60,123
649,409,57,119
651,409,57,119
663,407,57,119
672,408,56,125
675,406,59,128
679,407,59,128
689,405,59,128
691,405,59,128
696,407,59,128
706,408,59,128
707,408,59,128
711,408,59,128
716,408,59,128
718,407,59,128
719,407,59,128
718,405,59,128
717,404,59,128
716,403,59,128
715,402,59,128
714,401,59,128
713,400,59,128
714,400,59,128
716,401,59,128
717,401,59,128
720,401,59,128
722,401,59,128
723,401,59,128
724,400,59,128
726,400,59,128
728,399,59,128
734,397,59,128
740,395,59,128
741,395,58,127
743,395,57,126
745,396,58,125
746,396,58,125
747,397,59,124
748,397,59,123
750,397,59,123
752,397,59,123
754,397,59,123
755,396,59,123
751,397,57,120
747,398,55,117
747,398,55,117
747,397,55,117
748,397,55,117
748,396,55,117
748,395,55,117
748,395,54,117
748,394,53,118
748,393,52,118
748,392,51,119
748,392,51,118
748,392,51,117
748,392,51,117
748,392,52,115
748,392,53,114
748,392,54,113
748,392,55,112
748,392,56,110
750,391,56,111
751,391,56,111
753,390,56,112
753,389,56,113
753,388,56,115
754,388,56,115
754,388,56,115
755,388,56,115
755,388,56,115
754,388,56,116
754,387,55,116
753,387,55,116
753,387,55,117
752,386,54,116
752,385,53,116
752,383,52,116
750,384,51,115
748,384,50,115
746,384,49,115
745,384,49,115
743,383,49,115
743,383,51,114
743,383,52,112
743,383,54,111
743,383,52,112
743,383,51,112
743,383,49,113
740,382,49,113
737,381,49,113
737,381,49,111
737,381,49,109
737,381,49,107
736,380,49,107
734,380,49,107
733,380,49,107
734,380,49,107
734,380,49,107
734,379,49,107
735,379,49,107
735,379,49,107
735,379,49,107
736,379,49,107
736,379,49,107
737,379,49,107
737,379,49,107
737,379,49,107
738,379,49,107
739,380,49,107
740,381,49,107
740,381,49,106
740,381,50,105
740,381,50,104
740,380,50,104
740,380,50,104
740,379,50,104
740,379,50,104
741,378,50,104
742,377,50,104
744,377,50,104
745,376,50,104
746,376,50,104
747,376,50,104
748,376,50,104
749,376,50,104
750,376,50,104
751,376,50,104
754,376,50,104
758,375,50,104
754,376,50,104
749,376,50,104
738,372,50,104
729,374,46,104
722,374,46,104
714,373,46,104
714,374,46,104
715,375,46,104
715,375,46,104
716,376,46,104
715,375,46,104
714,373,46,104
713,373,46,104
712,373,46,104
711,372,46,104
712,372,46,104
713,372,46,104
714,372,46,104
716,372,46,104
709,373,44,96
702,373,43,89
692,370,43,89
689,371,43,89
685,373,45,81
685,373,47,84
685,373,48,86
689,374,48,86
692,374,48,86
691,373,48,86
689,372,48,86
688,371,48,86
683,370,48,86
684,371,48,86
684,371,48,86
685,371,48,86
685,371,48,86
685,371,48,86
686,371,48,86
688,371,48,87
689,371,48,88
691,371,48,88
692,371,48,89
694,371,48,89
696,371,48,89
698,371,48,89
700,371,48,89
703,370,47,89
706,369,45,90
709,368,44,90
712,368,44,90
715,369,44,90
716,369,44,90
718,369,44,90
721,369,44,90
724,370,44,90
725,370,44,90
726,370,44,90
728,370,44,90
730,368,42,90
733,366,40,90
736,365,40,90
739,365,40,90
741,364,40,90
742,364,40,90
744,364,40,90
745,364,40,90
747,365,40,90
748,365,40,90
751,363,40,90
751,363,40,90
752,363,40,90
755,364,39,86
758,366,39,81
759,365,38,81
760,364,38,80
762,364,38,79
763,363,37,78
763,362,36,77
764,361,36,77
765,360,35,77
765,361,37,77
765,361,40,75
766,361,43,72
766,361,42,73
766,360,42,73
766,360,42,73
766,360,41,73
767,359,41,74
767,359,40,74
767,359,40,74
767,358,40,75
767,358,39,75
768,358,39,75
768,357,39,75
768,357,38,76
768,357,38,76
768,357,38,75
768,357,37,75
768,357,37,75
768,357,36,74
768,357,36,74
768,357,36,73
768,357,35,73
768,357,35,72
768,357,35,72
768,357,34,71
768,355,34,71
768,354,34,71
768,353,34,71
768,352,34,72
768,352,33,72
768,351,32,72
768,351,32,72
768,350,31,73
768,349,31,73
768,349,30,73
768,348,30,73
768,348,29,74
768,347,28,74
767,346,28,74
767,347,28,74
767,348,28,74
766,349,28,74
766,349,28,74
766,349,28,74
766,349,29,74
766,349,29,74
766,349,29,75
765,349,29,75
765,349,30,75
765,348,30,75
765,348,30,75
765,348,30,75
765,348,31,75
764,348,30,75
763,347,30,75
762,347,29,76
761,346,29,76
760,347,29,76
760,347,29,76
760,347,29,76
759,346,29,76
758,347,29,76
756,347,29,76
756,347,29,74
756,347,29,73
756,347,31,73
756,347,32,73
756,347,34,73
756,347,36,73
758,347,36,73
760,347,36,73
761,347,35,73
761,347,35,72
762,348,34,71
763,348,33,71
764,348,33,70
764,348,32,70
765,348,31,69
766,348,31,69
767,348,31,71
767,348,28,70
767,348,29,73
767,348,30,75
767,348,31,77
767,348,31,74
767,348,30,70
767,348,31,70
767,348,33,71
767,348,34,71
767,348,36,71
767,348,38,71
767,348,39,71
767,348,41,71
767,348,37,72
767,348,33,72
769,348,33,72
770,348,33,71
772,348,33,71
773,347,32,70
773,347,33,70
773,347,33,70
773,347,33,71
773,347,34,71
773,347,34,71
773,347,34,71
773,347,35,71
773,347,35,71
773,347,35,71
773,347,36,71
773,347,36,71
773,347,37,71
773,347,37,71
773,347,37,71
773,347,38,71
773,347,38,71
773,347,38,71
773,347,39,71
773,347,39,71
773,347,39,71
773,347,39,71
773,347,39,71
773,347,39,71
773,347,39,71
773,347,39,71
773,347,39,71
773,347,38,70
773,347,38,70
773,347,38,70
773,347,38,70
773,347,38,70
773,347,38,70
773,347,38,70
773,347,38,70
773,347,38,70
773,347,38,70
773,347,38,69
773,347,38,69
773,347,38,69
773,347,38,69
773,347,38,69
773,347,38,69
773,347,38,69
773,347,38,69
773,347,38,69
773,347,37,68
773,347,37,68
773,347,37,68
773,347,37,68
773,347,37,68
773,347,37,68
773,347,37,68
773,347,37,68
773,347,37,68
775,347,35,68
777,347,33,68
780,347,30,68
782,347,28,68
784,347,26,68
783,347,27,68
783,347,27,68
782,347,28,68
781,347,29,68
781,347,29,68
781,347,30,69
781,347,30,69
781,347,31,70
781,347,31,70
781,347,31,71
781,347,32,71
781,347,32,72
781,347,33,73
781,347,33,73
781,347,33,73
781,347,32,73
781,347,31,73
781,347,31,73
781,347,30,73
781,347,29,73
781,347,29,73
781,347,28,73
781,347,28,73
781,347,28,73
781,347,28,73
781,347,28,73
781,347,28,73
781,347,28,73
781,347,28,73
780,347,28,73
780,347,28,73
780,347,28,73
780,347,28,72
780,347,28,72
780,347,28,72
780,347,28,72
779,347,28,72
779,347,28,72
779,347,28,72
779,347,28,72
779,347,28,72
779,347,28,72
779,347,28,72
778,347,28,72
778,347,28,72
778,347,28,72
778,347,28,72
778,347,28,72
778,347,28,72
777,347,28,72
777,347,28,72
777,347,28,72
777,347,28,72
777,347,28,72
777,347,28,72
773,347,32,71
770,347,36,69
769,347,36,71
768,346,37,73
767,345,37,74
766,346,36,73
765,347,36,71
763,348,35,70
762,349,34,69
759,350,35,67
756,351,35,66
754,352,35,65
754,350,35,65
751,350,36,64
748,350,37,63
746,350,37,62
744,350,37,62
742,350,37,62
737,351,37,62
735,351,38,63
733,351,40,64
729,349,42,64
726,349,43,64
723,348,44,65
723,348,38,64
719,347,32,65
716,348,36,63
714,348,31,65
710,347,32,65
708,347,33,65
705,347,33,65
703,347,33,65
700,347,33,65
698,348,33,63
696,348,32,62
692,347,32,62
689,346,32,62
689,346,36,62
689,346,39,62
689,346,37,63
689,346,35,63
689,346,33,64
689,346,31,64
689,346,30,65
687,345,31,66
685,345,31,68
682,345,31,68
679,345,34,65
676,345,36,62
672,347,32,63
666,345,38,70
666,346,35,63
663,346,35,63
661,345,37,63
659,345,36,63
657,345,36,63
655,345,35,63
654,345,34,63
652,346,32,62
650,346,30,60
649,345,30,60
648,344,30,60
645,345,30,60
641,345,30,60
639,345,30,60
635,346,30,60
631,346,30,60
630,345,33,61
629,344,37,62
629,344,37,62
628,345,31,62
627,345,24,62
625,345,24,62
624,344,24,62
622,344,24,62
619,345,25,62
615,343,25,62
610,344,27,62
607,344,24,58
602,344,24,58
597,344,24,58
597,344,20,56
590,345,25,58
585,342,25,58
579,342,25,58
577,341,25,58
575,341,25,58
573,341,25,58
570,342,25,58
566,343,25,58
565,343,25,58
564,343,25,58
560,339,25,58
558,340,25,58
555,342,25,58
554,341,25,58
553,341,25,58
547,341,25,58
541,341,25,58
540,340,25,58
538,340,25,58
532,339,25,58
532,340,22,54
532,341,19,49
531,341,19,49
531,342,19,49
531,342,19,49
530,342,19,49
530,342,19,49
529,342,19,49
529,342,19,49
525,342,19,49
522,342,19,49
522,341,19,49
521,341,19,49
520,341,19,49
519,340,19,49
516,339,19,49
513,339,17,48
509,338,19,49
508,339,19,49
507,340,19,49
502,340,23,49
498,340,23,49
497,339,23,49
491,339,23,49
489,340,23,49
486,340,23,49
485,340,23,49
484,340,23,49
481,339,21,48
479,339,23,49
478,338,23,49
477,337,23,49
477,338,23,49
478,339,23,49
480,339,23,49
482,340,23,49
485,339,23,49
486,338,23,49
487,338,23,49
487,338,23,49
487,338,23,49
487,338,23,49
487,338,23,49
486,338,23,49
482,338,23,50
481,338,24,49
473,337,24,49
472,336,24,49
471,336,24,49
471,337,26,49
471,338,28,49
470,338,28,49
470,338,28,49
469,338,25,48
468,338,23,47
471,337,23,47
476,336,23,47
479,336,23,47
481,336,24,47
481,336,24,47
481,336,24,47
482,336,24,47
482,336,24,47
485,336,24,47
488,336,24,47
491,336,24,47
491,336,24,47
490,336,24,47
490,336,24,47
491,336,24,47
493,336,24,47
492,336,23,47
491,336,22,47
490,335,22,47
488,335,22,47
488,336,22,47
489,336,22,47
491,336,22,47
494,337,22,47
496,336,22,47
498,335,22,47
502,336,22,47
504,335,22,47
505,336,22,47
506,336,22,47
508,336,22,47
509,336,22,47
510,337,22,47
511,337,22,47
512,337,22,47
518,335,22,47
518,337,22,45
518,338,21,44
516,338,21,44
516,338,19,46
515,337,19,46
513,335,19,47
513,336,20,45
513,337,22,44
513,337,23,43
513,338,24,42
514,338,24,42
516,339,24,42
519,339,24,42
524,339,24,42
529,337,24,42
538,339,24,42
544,340,23,41
543,339,23,41
542,339,21,42
540,338,20,43
539,337,20,43
537,337,20,43
537,336,20,43
537,335,20,43
537,335,20,43
537,334,20,43
537,334,22,44
536,334,24,44
536,334,24,44
537,334,24,44
537,334,24,44
537,334,24,44
538,333,24,44
539,334,24,44
540,334,24,44
541,337,24,44
542,337,24,44
542,335,24,44
541,333,24,44
541,332,24,44
540,332,24,45
538,332,23,45
537,332,23,45
536,331,23,45
535,330,23,45
537,327,23,45
539,325,23,45
544,323,23,45
548,320,23,45
549,322,23,45
550,323,23,45
549,325,23,44
547,327,23,43
546,326,21,42
544,326,20,42
544,322,20,42
545,321,20,42
548,321,20,42
552,323,20,42
554,325,20,42
554,327,20,42
554,329,20,42
555,330,20,42
557,330,20,42
559,331,20,42
561,331,20,42
564,331,20,42
565,331,20,42
566,332,20,42
567,331,20,42
568,331,20,42
571,330,20,42
577,329,20,42
579,329,21,42
583,331,21,42
584,333,21,42
586,334,23,40
586,334,23,40
587,334,23,40
588,334,22,40
590,334,21,41
590,332,21,41
590,332,21,41
591,332,21,41
591,332,21,41
591,332,21,41
592,333,21,41
593,334,21,41
592,334,21,41
591,333,21,41
590,332,21,41
589,332,21,41
589,332,21,41
589,333,21,41
589,333,21,41
589,334,21,41
589,334,21,41
589,335,21,41
589,335,21,41
590,335,21,41
590,335,21,41
592,336,20,41
595,336,19,40
596,336,19,40
597,336,19,40
596,336,19,40
594,336,19,40
593,335,19,40
591,334,19,40
589,335,19,40
587,334,19,40
585,334,19,40
584,335,19,40
583,335,19,40
582,334,19,40
581,334,19,40
579,334,19,41
576,334,20,41
574,335,20,41
572,336,20,41
571,336,20,41
570,336,20,41
568,335,20,41
567,335,20,41
565,334,20,41
563,333,21,41
562,333,20,40
560,333,19,39
560,333,19,39
559,333,19,39
559,332,19,39
556,332,19,39
554,331,19,39
553,331,19,39
552,332,19,39
550,331,19,39
548,331,19,39
547,332,19,39
545,332,19,39
543,332,19,39
541,331,19,39
539,331,19,39
537,331,19,39
535,332,19,39
535,332,18,38
534,332,17,38
533,332,17,38
532,332,17,38
529,332,17,38
529,332,17,38
528,332,17,38
527,332,17,38
525,332,17,38
524,332,17,38
522,333,17,38
522,333,17,38
521,332,17,38
519,332,17,38
517,331,17,38
516,332,17,38
514,332,17,38
517,332,17,37
520,333,18,37
521,333,18,37
522,333,18,37
521,333,18,37
520,334,18,37
518,334,18,37
518,334,17,36
517,334,17,36
516,334,16,36
516,333,16,36
513,332,16,36
511,331,16,36
510,332,17,36
509,334,18,36
507,334,18,36
504,333,18,36
504,333,18,36
503,333,18,36
501,332,18,36
500,331,18,36
499,331,18,36
497,331,18,36
496,331,18,36
495,331,18,36
493,331,18,36
492,331,18,36
491,332,18,36
489,332,18,36
488,332,18,36
487,332,19,36
485,332,19,36
485,332,19,36
484,332,19,36
482,332,19,36
480,332,19,36
479,332,19,36
478,332,19,36
476,332,19,36
474,332,19,36
474,332,19,36
473,332,19,36
471,332,19,36
469,332,19,36
468,332,19,36
466,332,19,36
464,331,19,36
462,331,19,36
461,331,19,36
461,331,19,36
460,331,19,36
460,331,19,36
460,331,19,36
459,331,19,36
459,331,19,36
458,331,19,35
458,331,18,35
458,332,18,35
457,332,17,34
456,332,17,34
455,331,17,34
454,331,17,34
453,331,17,34
452,332,17,34
450,332,18,34
449,332,18,34
448,332,17,34
447,332,17,34
446,331,17,34
445,330,17,34
444,330,17,34
443,330,17,34
443,331,17,34
442,331,17,34
445,332,17,34
447,333,17,34
449,333,17,34
452,334,17,34
451,334,17,34
450,333,17,34
447,334,17,34
444,334,17,34
444,334,17,34
443,335,17,34
443,335,17,34
442,335,17,34
441,335,17,34
439,336,17,34
437,336,17,34
435,336,17,34
435,336,17,34
434,336,17,34
434,336,17,34
432,335,17,34
431,334,17,34
430,334,17,33
428,334,17,32
426,333,17,32
424,333,17,32
425,333,17,32
425,333,17,32
426,333,17,32
427,333,17,32
426,332,17,32
425,332,17,32
424,332,17,32
422,332,18,32
421,332,19,33
420,332,20,33
418,335,20,33
418,335,20,32
417,335,20,32
416,334,19,31
415,334,19,31
414,333,19,31
412,332,19,31
412,332,19,31
411,331,19,31
410,330,19,31
409,329,19,31
407,329,19,31
406,328,19,31
405,328,19,31
403,328,19,31
403,330,18,30
403,332,17,29
402,329,19,31
401,329,19,31
401,329,19,31
403,332,15,29
403,329,18,32
403,330,17,31
403,331,17,30
403,333,16,30
404,334,16,29
404,335,15,28
404,336,15,27
406,335,15,28
408,335,15,29
410,334,16,30
408,334,16,30
407,334,16,30
406,334,16,30
405,334,16,30
405,334,16,30
404,334,16,30
403,334,16,30
402,333,16,30
401,333,16,30
400,333,16,30
399,333,16,30
399,333,15,30
398,333,15,30
397,333,14,30
397,333,14,30
396,333,13,30
396,333,12,29
396,333,12,29
396,333,11,29
393,335,16,28
395,335,11,28
393,335,11,28
392,335,12,28
391,335,13,28
390,335,13,28
390,335,13,28
389,335,13,28
387,334,13,28
386,335,13,28
386,336,13,28
385,337,13,28
385,337,13,28
383,338,13,28
381,341,13,28
381,347,13,28
381,348,13,28
381,349,13,28
381,349,13,28
381,349,13,28
381,349,13,28
