49,137,124,108
48,138,124,106
46,139,123,104
45,140,123,103
44,141,123,101
44,140,124,102
44,140,125,102
44,139,127,103
44,139,128,103
44,138,130,104
44,139,130,103
44,141,131,103
44,142,132,102
44,143,133,102
44,145,134,101
43,144,134,100
43,143,134,99
43,142,134,99
42,142,134,98
42,141,134,97
44,141,132,97
47,141,131,97
49,141,130,97
51,141,128,97
53,141,127,97
52,141,127,97
51,141,127,97
50,141,127,97
49,141,127,97
48,141,127,97
49,141,127,97
50,141,127,97
52,141,127,97
53,141,127,97
54,141,127,97
53,141,127,97
52,141,127,97
51,141,127,97
50,141,127,97
49,141,127,97
49,141,128,98
49,142,129,99
49,142,130,99
49,143,131,100
49,143,132,101
49,143,132,101
48,143,132,101
48,143,132,101
48,143,132,101
48,143,132,101
47,143,132,101
47,143,132,101
47,143,132,101
47,143,132,101
46,143,132,101
47,143,131,101
47,142,131,100
47,141,130,100
47,140,129,100
48,139,128,100
48,139,129,100
48,139,130,100
48,139,131,100
48,139,132,100
48,139,134,100
48,139,134,100
48,139,135,100
48,139,136,100
48,139,137,100
48,139,138,100
48,139,139,100
53,142,138,101
58,145,138,103
64,147,137,105
69,150,136,106
74,157,136,106
80,163,136,106
85,170,136,106
90,176,136,106
95,183,136,106
104,185,135,105
112,188,134,104
121,191,133,102
130,193,132,101
138,196,131,100
141,198,131,100
143,199,132,101
146,201,132,101
148,203,133,102
150,204,134,102
151,205,134,102
153,205,134,102
154,206,134,102
155,206,134,102
156,207,134,102
156,207,128,102
187,207,75,102
187,207,59,102
192,207,51,102
158,207,101,102
156,206,109,105
153,204,117,108
150,203,125,110
147,202,134,113
144,200,142,116
147,202,136,114
151,203,130,112
155,204,124,109
159,206,118,107
163,207,112,105
166,206,114,106
170,205,116,107
173,205,118,107
177,204,119,108
180,203,121,109
181,203,121,109
182,203,121,109
183,204,121,109
184,204,121,109
186,204,121,109
186,204,122,108
187,204,124,106
188,204,125,105
189,204,126,104
190,204,127,102
188,203,129,104
186,203,132,105
184,202,134,106
182,201,137,108
180,200,139,109
174,199,140,113
168,197,142,116
162,195,143,120
156,194,144,123
150,192,146,127
147,192,146,127
144,192,146,127
141,192,146,127
137,192,146,127
134,192,146,127
134,192,146,128
134,192,146,129
134,192,146,130
134,192,146,131
134,192,146,132
135,192,146,132
136,192,146,132
137,192,147,132
138,192,147,132
139,192,147,132
140,192,147,132
141,192,148,132
142,192,148,132
143,192,148,132
144,192,148,132
145,192,149,132
146,192,149,132
147,192,149,132
148,192,150,132
149,192,150,132
158,193,150,132
167,194,150,132
176,195,150,132
185,195,150,132
194,196,150,132
202,197,150,127
211,199,150,122
220,200,150,117
228,202,150,113
237,203,150,108
237,200,152,111
237,197,155,115
237,195,157,118
237,192,160,122
237,189,162,125
221,192,162,125
205,195,162,125
189,197,162,125
173,200,162,125
157,203,162,125
148,202,162,127
138,200,162,129
129,199,162,130
119,197,162,132
110,196,162,133
112,197,159,133
114,197,156,132
117,198,152,131
119,199,149,131
121,200,146,130
123,200,143,129
127,201,143,129
131,201,143,129
134,201,143,129
138,202,143,129
140,199,143,131
142,197,143,133
144,195,143,134
146,193,143,136
148,191,143,137
150,192,143,137
152,192,143,137
154,193,143,137
156,194,143,137
158,195,143,137
158,195,144,137
158,195,145,137
158,195,145,137
158,195,146,137
158,195,147,137
157,195,148,137
156,195,150,137
154,195,151,137
153,195,152,137
152,195,154,137
150,195,155,137
149,195,157,137
148,195,158,137
146,195,159,137
145,195,161,137
144,195,161,137
144,195,161,137
143,195,161,137
143,195,161,137
142,195,161,137
138,195,161,137
134,194,161,137
129,194,161,137
125,194,161,137
121,193,161,137
119,193,161,137
118,193,161,137
117,193,161,137
115,193,161,137
114,193,161,137
116,193,159,136
117,192,157,135
119,191,156,134
121,190,154,133
122,190,153,131
124,189,151,130
126,188,149,129
128,188,148,128
129,187,146,126
131,186,145,125
133,185,143,124
131,185,143,124
130,185,143,124
129,185,143,124
127,185,143,124
127,185,143,124
127,186,143,124
126,186,143,124
126,186,143,124
126,186,143,124
125,186,144,124
125,187,144,125
125,187,144,125
124,187,144,125
124,187,144,125
123,187,144,125
123,187,144,125
123,188,144,125
122,188,144,125
122,188,144,125
120,188,144,125
119,189,144,125
118,189,144,125
116,189,144,125
115,189,144,125
113,190,144,125
112,190,144,125
110,190,144,125
109,190,144,125
107,191,144,125
108,191,144,125
109,190,144,125
110,190,144,125
111,190,144,125
112,190,144,125
112,190,144,125
113,190,144,125
114,190,144,125
115,190,144,125
116,189,144,125
117,189,144,125
118,189,144,125
119,189,144,125
119,189,144,125
120,189,144,125
121,189,144,125
122,188,144,125
123,188,144,125
124,188,144,125
125,188,144,125
132,197,135,117
139,205,125,108
146,197,115,115
164,188,105,112
184,188,82,109
204,188,58,106
198,188,88,104
175,188,124,101
179,188,121,98
184,188,119,96
181,188,120,98
178,188,121,101
174,188,122,104
171,188,123,106
168,188,124,109
168,188,124,107
168,187,124,105
168,187,124,103
168,187,124,102
168,187,124,100
168,187,124,100
167,187,124,100
167,188,124,100
166,188,124,100
166,189,124,100
166,189,124,100
165,190,124,100
165,190,124,100
164,190,124,100
164,191,124,100
164,192,124,100
163,192,124,100
163,193,124,100
163,194,124,100
163,195,124,100
160,196,125,100
157,196,126,100
154,197,127,100
152,198,128,100
149,199,130,100
150,200,128,99
151,200,127,98
152,201,125,97
153,202,124,96
154,203,123,96
153,203,124,95
152,203,124,94
151,204,125,94
150,204,126,93
149,204,127,93
147,204,129,94
146,204,131,95
144,204,133,96
143,204,135,97
141,204,138,98
143,204,137,98
144,204,135,98
146,204,134,98
147,204,133,98
149,204,132,98
151,204,132,98
154,204,132,98
156,204,132,98
159,204,132,98
161,204,132,98
171,204,131,98
181,203,129,97
191,203,127,97
201,202,126,96
211,202,124,96
222,200,123,96
233,199,122,96
244,197,122,96
256,196,121,96
267,195,120,96
269,193,119,96
272,190,119,97
275,188,118,98
277,186,118,99
280,184,117,100
269,189,118,100
257,194,118,100
246,199,119,100
235,203,119,100
223,208,120,100
208,208,124,101
192,208,127,102
176,207,131,104
161,207,134,105
145,207,138,106
140,206,136,106
136,205,134,105
131,205,133,104
127,204,131,103
122,203,130,102
122,203,128,103
122,203,127,103
122,203,126,103
122,203,125,103
122,203,124,104
131,202,126,104
139,200,128,104
148,199,131,104
157,197,133,104
165,196,135,104
182,192,133,102
199,187,131,100
216,183,128,98
232,179,126,96
249,174,124,94
253,172,124,95
258,170,125,95
262,168,125,96
266,166,125,96
271,164,125,97
268,164,125,97
266,165,125,97
263,166,125,97
261,167,125,97
259,168,125,97
256,168,120,98
253,169,114,99
250,169,108,100
248,170,103,101
245,170,97,102
245,174,80,101
244,177,63,100
238,180,52,99
232,185,55,98
226,189,58,97
224,190,56,97
223,191,54,97
221,192,51,97
220,193,49,97
218,193,47,97
219,194,46,97
220,195,46,97
221,195,45,97
222,196,44,97
224,197,44,97
225,197,43,97
224,197,43,97
223,197,43,97
222,196,43,97
221,196,43,97
222,199,44,102
223,202,44,107
224,204,45,112
225,207,45,117
226,210,46,123
226,209,47,123
225,209,48,123
224,208,50,123
224,207,51,123
223,207,52,123
227,203,52,123
232,198,52,124
236,194,52,125
240,190,52,125
244,186,51,126
248,181,51,127
252,180,50,123
257,179,49,119
262,177,48,115
267,176,47,112
270,176,45,112
274,177,44,112
278,177,42,112
282,178,41,112
286,179,39,112
285,177,38,111
285,176,38,110
285,174,37,110
285,173,37,109
284,171,36,108
284,170,36,108
284,168,35,107
283,167,35,106
283,165,34,106
283,164,33,105
283,163,33,105
283,162,33,105
283,161,33,105
283,160,33,105
283,160,33,105
283,160,38,104
283,160,42,104
283,160,46,103
283,160,50,103
283,160,54,102
283,160,56,102
283,160,58,102
283,160,60,102
283,160,62,102
283,160,65,102
282,160,65,102
281,161,66,101
280,162,67,100
280,163,68,99
279,164,69,98
279,164,69,99
279,164,70,99
279,164,71,99
279,164,71,99
279,164,72,100
279,164,73,100
279,164,73,100
279,164,74,100
279,164,75,101
279,164,75,101
273,163,79,101
268,163,82,100
263,162,86,100
257,162,89,100
252,161,93,100
249,161,97,100
247,162,101,100
244,162,105,100
242,162,109,100
240,162,113,100
240,162,113,98
240,162,113,97
240,162,113,96
240,162,113,94
239,162,111,90
238,162,108,86
237,162,105,82
236,162,102,78
235,162,100,74
234,162,97,70
225,164,111,75
216,166,125,80
207,167,139,84
199,169,153,89
190,170,167,94
190,169,167,98
190,168,167,102
190,166,167,106
191,165,167,110
191,164,167,114
191,164,167,115
191,165,167,116
191,166,167,117
191,167,167,118
191,168,167,119
197,168,156,120
203,169,144,122
210,169,132,124
216,170,121,126
222,170,109,128
225,171,110,123
229,172,111,118
232,173,112,113
235,174,112,107
238,174,113,102
238,172,116,105
238,174,118,103
238,177,119,100
238,179,121,98
238,181,123,96
238,181,123,98
238,181,123,100
238,181,123,102
238,181,123,104
238,181,123,106
238,182,122,106
238,183,121,105
238,184,119,104
238,184,118,103
238,185,117,102
239,186,116,102
239,187,115,101
240,188,113,100
240,189,112,99
241,189,111,98
242,187,111,100
242,186,112,101
243,184,112,102
243,182,113,104
244,180,113,105
245,179,114,104
246,178,115,103
247,177,116,102
248,176,117,101
249,174,117,100
257,173,104,101
264,172,91,101
272,170,78,102
262,178,91,94
253,185,105,86
282,189,90,69
245,177,140,73
245,169,143,87
245,165,143,91
238,160,151,105
238,162,151,105
237,163,151,104
237,165,151,104
236,167,151,104
236,169,151,104
236,170,151,103
236,171,151,102
236,172,151,101
236,172,151,100
236,173,151,100
234,174,151,100
233,174,151,100
232,174,151,100
230,175,151,100
229,175,151,100
227,176,151,100
226,176,151,100
225,177,151,100
223,177,151,100
222,178,151,100
221,178,151,100
219,179,151,100
218,179,151,100
217,179,151,100
215,180,151,100
209,180,149,99
202,180,147,98
195,180,145,97
188,180,142,96
181,180,140,96
177,181,140,96
172,182,139,97
168,182,138,98
163,183,137,99
158,184,136,100
163,184,134,100
167,185,132,101
171,186,130,102
175,186,128,103
179,187,125,104
191,187,96,110
205,187,77,108
219,187,58,105
210,187,82,102
202,183,105,105
202,183,111,104
202,183,117,103
202,183,122,102
202,183,123,104
202,183,123,105
202,183,123,103
202,184,124,102
202,185,124,100
202,186,125,99
202,187,125,97
202,187,127,97
202,187,128,97
202,187,130,97
202,187,131,97
202,187,132,97
208,185,133,97
214,184,134,98
220,183,135,99
226,181,135,99
232,180,136,100
241,177,136,100
250,174,136,101
259,172,135,102
268,169,135,103
277,166,135,104
282,164,135,104
286,163,136,104
290,161,137,104
294,159,137,104
298,157,138,104
296,160,134,101
293,163,130,98
291,166,125,96
289,169,121,93
287,172,117,90
275,172,121,94
264,171,125,99
252,171,129,103
240,171,132,107
229,170,136,112
216,170,141,114
204,169,147,116
191,168,152,118
179,167,157,120
167,166,162,123
165,168,161,121
164,169,160,120
163,170,159,119
161,172,158,117
160,173,157,116
164,174,157,116
168,175,157,116
172,176,157,116
176,176,157,116
180,177,157,116
183,177,154,116
186,177,152,116
189,177,149,116
192,177,147,116
195,177,144,116
196,177,144,116
197,177,143,116
197,177,142,116
198,177,141,116
199,177,140,116
198,178,140,116
197,178,141,117
196,178,141,117
195,179,141,118
194,179,141,119
193,180,141,119
192,180,141,119
191,180,141,119
191,181,140,120
190,181,140,120
188,181,142,120
187,180,144,120
186,180,145,120
184,179,147,120
183,179,148,120
183,179,150,120
183,179,151,120
183,179,152,120
183,179,153,120
183,179,154,120
185,179,154,120
187,179,154,121
189,179,154,122
190,179,154,122
192,179,154,123
192,180,152,122
192,181,151,121
192,183,149,120
192,184,147,119
192,185,146,119
188,185,147,119
183,185,148,120
179,185,150,120
174,185,151,121
169,185,152,121
167,186,153,122
165,187,153,122
163,188,153,123
161,189,154,123
158,189,154,124
159,189,154,124
160,189,155,124
160,189,155,124
161,189,156,124
161,189,157,124
171,188,155,122
181,187,153,120
190,185,151,117
200,184,149,115
210,183,147,113
232,174,145,111
255,166,142,109
277,157,140,107
300,149,137,106
322,141,135,104
331,134,137,105
339,127,140,107
348,120,142,109
357,113,145,110
365,106,147,112
358,113,147,109
350,120,147,105
343,127,147,102
335,134,147,99
328,141,147,96
306,151,148,97
285,161,150,98
263,171,151,99
242,181,152,100
221,191,154,101
209,196,151,102
197,202,149,104
185,207,147,105
173,212,144,106
161,218,142,108
155,219,141,108
149,221,141,108
143,223,141,108
137,224,141,108
131,226,140,108
137,227,142,109
143,227,144,109
148,228,146,110
154,229,148,111
160,230,150,112
184,226,150,110
208,223,150,108
232,219,150,106
256,216,150,104
280,212,150,102
305,204,145,104
330,195,140,105
339,185,140,106
348,176,140,108
357,166,140,109
354,169,140,109
351,172,140,109
348,174,140,109
345,177,140,109
342,180,140,109
325,187,141,107
308,195,141,105
290,202,142,103
273,209,142,102
256,216,143,100
242,216,143,102
229,215,143,104
215,214,143,106
202,213,143,108
188,212,143,110
185,212,143,110
182,212,143,110
179,212,143,110
176,212,143,110
173,212,143,110
180,212,141,108
186,212,140,106
192,212,138,104
198,211,137,102
204,211,135,100
213,216,133,98
221,221,131,97
229,226,129,96
237,230,127,94
245,235,125,93
245,241,129,97
244,247,133,102
244,252,137,106
244,258,141,110
244,264,144,114
251,267,141,110
258,271,137,106
265,274,134,102
272,278,130,98
279,281,127,94
277,280,124,95
276,279,121,95
274,277,119,96
272,276,116,96
271,275,113,97
266,273,102,97
261,272,91,97
256,270,80,97
251,269,69,97
246,268,58,97
240,266,59,98
234,265,61,100
229,264,63,101
223,262,64,102
217,261,66,104
214,258,79,104
212,256,93,104
209,253,107,104
207,250,120,104
204,248,134,104
215,237,137,104
225,226,141,105
235,215,144,106
246,204,148,107
256,193,151,108
260,186,135,110
264,178,120,112
269,171,104,114
263,186,86,107
256,195,81,104
247,200,93,103
237,204,105,102
228,209,117,101
219,213,130,100
210,217,142,98
213,222,146,97
215,226,149,95
218,231,153,94
221,235,157,93
224,240,160,91
224,234,156,97
224,228,152,103
224,222,147,109
224,216,143,115
224,210,138,121
214,210,137,119
203,210,136,118
193,210,135,116
205,209,134,115
221,205,114,113
211,205,114,113
201,205,114,113
192,206,114,113
182,206,114,113
182,216,114,113
184,215,122,113
187,214,130,113
190,213,137,113
192,213,145,113
195,212,153,113
218,211,150,111
241,210,147,109
265,209,144,107
288,207,141,104
311,206,138,102
319,203,136,101
327,200,134,100
335,197,132,99
343,195,129,98
350,192,127,97
342,193,128,98
334,195,129,99
326,196,129,100
318,197,130,101
310,199,131,102
297,200,132,103
285,200,133,103
273,201,134,103
261,202,135,104
248,203,136,104
237,203,137,105
225,204,139,107
213,205,140,108
201,206,141,110
189,206,142,111
184,206,145,114
178,206,148,116
172,206,151,119
172,206,153,119
172,206,155,119
172,206,157,119
172,206,159,119
172,206,160,119
172,206,162,119
172,206,164,119
180,207,160,119
188,207,156,119
196,207,152,119
204,208,148,119
211,208,144,119
211,208,143,118
211,208,143,117
211,208,143,117
211,208,142,116
211,208,142,115
213,210,141,113
214,213,140,111
216,215,140,108
217,217,139,106
219,219,138,104
220,219,138,104
220,219,138,104
221,219,138,104
222,219,138,104
223,219,138,104
232,219,122,104
241,219,107,104
250,219,91,104
260,219,75,104
250,219,90,104
240,219,105,105
230,219,119,105
220,219,134,106
221,219,139,105
223,219,144,104
221,220,144,106
220,220,144,108
219,220,144,110
218,221,144,111
217,221,144,113
221,220,138,112
224,220,132,111
228,219,126,110
232,218,120,109
235,217,114,108
233,218,119,108
230,219,124,108
227,220,129,109
224,220,133,109
221,221,138,110
221,225,139,111
221,228,140,112
221,231,142,113
221,235,143,114
221,238,144,115
221,243,143,113
221,248,142,111
221,253,142,108
221,259,141,106
221,264,140,104
221,264,138,104
221,264,137,105
221,264,135,105
221,264,134,105
221,264,132,106
221,264,131,106
219,264,131,106
218,264,131,106
216,264,131,106
215,264,131,106
215,267,131,104
215,270,131,103
215,274,131,102
215,277,131,100
215,276,131,102
215,274,131,103
215,273,132,104
215,272,132,105
215,271,132,106
215,269,133,108
215,267,132,108
216,264,132,108
216,262,132,108
217,259,131,108
217,256,131,108
222,256,134,108
226,256,136,108
231,256,139,108
235,256,142,108
234,251,147,108
241,250,144,106
249,249,141,105
257,248,137,103
265,246,134,102
273,245,131,100
278,243,131,101
284,240,131,102
289,237,131,103
295,234,131,104
295,238,131,104
285,243,132,104
275,248,132,104
266,252,133,104
256,257,134,104
247,262,134,104
233,265,137,105
219,269,140,105
205,272,143,106
192,275,146,107
178,279,149,108
178,276,149,109
178,274,149,111
178,272,149,112
178,270,149,114
178,268,149,115
193,267,137,116
209,266,124,117
224,265,112,118
239,264,99,119
254,266,86,115
258,265,81,113
262,263,76,111
266,262,71,108
270,261,66,106
274,260,60,104
260,260,78,103
247,260,95,102
233,260,112,101
219,260,129,100
217,260,130,103
215,260,131,106
213,260,133,110
211,260,134,113
210,260,135,116
208,260,136,119
204,260,136,119
201,260,136,119
198,260,136,119
194,260,136,119
191,260,136,119
187,261,136,119
183,262,136,119
179,262,136,119
175,263,136,119
171,264,136,119
179,270,133,110
186,277,111,104
194,285,89,97
201,293,68,91
200,275,79,108
200,275,88,108
200,275,97,108
200,275,106,108
200,275,114,108
200,275,123,108
201,275,131,108
202,275,138,108
203,275,146,108
203,275,153,108
204,275,160,108
220,275,150,103
236,275,140,99
252,275,129,94
268,275,119,90
284,275,109,85
288,277,112,88
292,279,116,91
296,280,120,94
300,282,123,97
292,280,128,98
283,277,132,100
274,274,136,101
261,274,141,103
247,273,145,104
234,273,149,106
234,273,133,106
222,274,133,108
210,274,134,110
198,274,134,111
185,275,134,113
180,275,134,113
174,275,134,113
169,275,134,113
163,275,134,113
158,275,134,113
157,273,137,113
155,270,140,113
154,268,142,113
153,266,145,113
152,264,147,113
157,262,146,111
162,260,145,109
167,258,144,107
171,256,143,104
176,255,142,102
181,253,142,102
185,252,142,102
190,251,142,102
194,250,142,102
198,249,142,102
199,249,142,102
200,249,141,101
201,249,141,101
201,249,140,101
202,249,140,100
202,249,138,100
202,249,136,100
202,249,133,100
202,249,131,100
202,249,129,100
198,250,129,100
193,252,129,100
189,253,129,100
184,255,129,100
180,256,129,100
184,256,122,100
187,256,115,100
191,255,108,100
195,255,101,100
198,255,94,100
210,254,87,100
222,254,80,100
219,251,87,84
206,250,105,92
193,249,123,100
193,246,128,104
193,242,132,107
193,239,137,110
193,236,141,114
193,232,146,117
193,232,143,117
193,232,140,117
193,232,138,117
193,232,135,117
193,232,133,117
196,232,128,117
199,232,123,117
202,232,119,117
205,232,114,117
209,232,109,117
212,232,105,117
215,232,100,117
218,232,96,117
221,232,91,117
224,232,86,117
226,232,90,115
227,232,94,113
229,232,99,110
230,232,103,108
232,232,107,106
225,232,117,108
218,232,127,110
211,232,137,111
204,232,147,113
197,232,157,115
198,231,157,115
200,230,157,115
201,229,157,115
203,228,157,115
204,227,157,115
204,227,155,115
204,227,153,115
204,227,151,115
204,227,149,115
204,227,147,115
204,227,147,115
204,227,146,115
204,227,145,115
204,227,144,115
204,227,144,115
204,227,143,115
204,227,142,115
204,227,142,115
204,227,141,115
204,227,140,115
204,227,139,115
204,227,138,115
204,227,136,115
204,227,135,115
204,227,134,115
204,227,133,115
204,226,133,116
204,224,133,118
204,223,133,119
204,222,133,120
204,221,133,121
204,219,133,123
204,218,133,124
204,217,133,125
204,216,133,126
204,216,133,125
204,216,134,123
204,216,135,122
204,216,136,120
204,216,136,119
204,216,139,119
204,216,142,119
204,216,144,119
204,216,147,119
204,216,149,119
202,216,149,120
200,216,149,120
198,216,148,121
197,216,148,122
195,216,147,123
193,216,147,121
192,216,147,120
190,216,147,119
189,216,147,118
187,216,147,117
187,216,146,116
187,216,145,116
187,216,144,115
187,216,143,114
187,216,142,113
185,216,142,113
184,216,142,113
182,216,142,113
180,216,142,113
178,216,142,113
177,216,143,114
177,216,143,115
176,216,144,116
175,216,145,116
174,216,146,117
175,214,148,118
176,213,150,120
177,211,152,121
177,210,154,123
178,208,157,124
178,208,153,122
178,208,150,120
178,208,147,118
178,208,143,116
178,208,140,113
177,208,140,113
176,208,140,113
175,208,140,113
174,208,140,113
172,208,140,113
175,208,142,114
177,208,144,116
179,208,146,117
181,208,147,118
184,208,149,119
187,209,151,116
190,209,153,114
192,209,155,111
195,210,157,108
198,210,159,106
198,210,134,109
198,210,137,113
198,210,140,116
198,210,143,119
198,210,146,123
198,211,146,122
198,212,146,121
198,213,146,120
198,214,146,119
198,215,146,118
198,216,146,117
198,217,146,116
198,217,146,115
198,218,146,114
198,219,146,113
198,221,143,113
198,222,140,113
198,224,138,112
198,225,135,112
198,227,133,111
198,227,134,113
198,228,136,114
198,229,138,115
198,230,140,118
198,232,142,121
198,232,142,111
204,232,136,111
210,232,131,111
215,232,125,111
221,232,120,111
219,232,121,110
218,232,122,109
216,232,123,108
215,232,124,107
213,232,125,106
