240,331,69,160
240,331,68,160
240,331,68,159
240,331,68,159
240,331,68,159
240,331,68,159
240,332,68,159
241,332,67,159
241,332,67,159
242,332,66,158
240,332,68,158
240,332,68,158
240,332,68,158
240,332,68,158
240,332,68,158
240,332,67,158
241,332,67,158
241,332,67,158
241,332,66,158
242,332,65,158
242,332,66,158
241,332,66,158
241,332,67,158
241,332,67,158
241,332,67,158
241,332,67,158
241,332,67,158
241,332,67,158
241,332,67,158
241,332,68,158
241,332,68,158
241,332,68,158
241,332,68,158
241,332,68,158
241,332,68,158
241,332,68,158
241,332,68,158
241,332,68,158
241,332,69,158
241,332,69,158
240,332,70,158
240,332,71,158
240,332,70,158
240,332,70,158
240,332,70,158
240,332,69,158
240,332,69,158
239,332,70,158
239,332,69,158
239,332,69,158
240,332,69,158
240,332,68,158
240,332,69,158
240,332,69,158
239,332,70,158
239,333,70,158
239,333,70,158
239,333,70,158
240,333,70,158
239,333,71,158
239,333,70,158
240,333,69,158
240,333,68,158
240,333,68,158
240,333,68,158
240,333,67,158
241,333,66,158
241,333,66,158
241,333,66,158
241,333,66,158
241,333,66,158
241,333,66,157
241,333,66,157
241,333,66,157
242,333,66,157
242,333,66,157
242,333,65,157
242,333,65,157
242,333,65,157
241,333,66,157
241,333,66,157
241,333,66,157
241,333,66,157
241,333,67,157
240,333,67,157
240,333,67,157
241,333,66,157
240,333,67,157
240,333,67,157
240,333,67,157
240,333,67,157
240,333,67,157
240,333,67,157
240,333,67,157
240,333,66,157
240,333,67,157
240,333,67,157
241,333,66,157
240,333,66,157
241,333,66,157
241,333,66,157
241,333,66,157
240,333,67,157
240,333,66,157
241,333,66,157
240,333,67,157
239,333,68,157
239,333,68,157
239,333,67,157
240,333,67,157
240,333,67,157
240,333,67,157
241,333,66,157
240,333,67,157
240,333,67,157
241,333,66,157
241,333,66,157
241,333,66,157
240,333,67,157
239,333,68,158
240,333,67,158
240,333,67,158
240,333,67,158
240,333,67,158
240,333,67,158
240,333,67,158
240,333,67,158
240,333,67,158
240,333,67,158
240,333,66,158
241,333,66,158
241,333,66,158
241,333,66,158
241,333,66,158
241,333,65,158
241,333,66,158
241,333,66,158
241,332,66,158
241,332,66,158
242,332,65,158
242,332,65,158
242,332,65,158
242,332,65,158
242,332,65,158
242,332,65,158
242,332,65,158
242,332,65,158
241,332,65,158
241,332,65,158
242,332,65,158
242,332,64,158
242,332,65,158
241,332,66,158
241,332,66,158
241,332,66,158
240,332,67,158
240,332,67,158
240,332,67,158
240,332,67,158
240,332,68,158
240,332,68,158
240,332,68,158
240,332,68,158
240,332,68,158
240,332,68,158
239,332,69,158
239,332,69,158
239,332,69,158
239,332,69,158
239,332,69,158
240,332,69,158
240,332,68,158
241,332,67,158
241,332,67,158
241,332,67,158
241,332,67,158
242,332,67,158
242,332,67,159
242,332,67,159
242,332,66,159
242,332,66,159
242,332,66,159
243,332,66,159
243,332,66,159
243,332,66,159
243,332,66,159
243,332,65,159
243,332,66,159
243,333,66,159
243,333,66,159
243,333,65,159
243,333,65,159
244,333,65,159
244,333,65,159
244,333,65,159
244,333,64,159
244,333,64,159
244,333,65,159
243,333,65,159
243,333,66,159
243,333,66,159
243,333,66,159
243,333,66,159
242,333,66,159
242,333,66,159
242,333,66,159
242,333,67,159
242,333,67,159
242,333,67,159
242,333,67,159
242,333,67,159
241,333,67,159
241,333,67,159
241,333,68,159
241,333,68,159
241,333,68,159
241,333,68,159
241,333,68,159
241,333,67,159
241,333,67,159
241,333,68,159
241,333,68,159
241,333,68,159
241,333,68,159
240,333,68,159
240,333,69,159
240,333,69,159
240,333,69,159
240,333,69,160
239,333,69,160
239,333,70,160
239,333,69,160
240,333,69,160
240,333,69,160
240,332,69,161
241,332,71,160
243,333,69,159
243,334,70,158
244,334,70,158
243,334,71,158
243,334,71,158
243,334,71,158
243,334,71,158
243,334,71,158
244,334,71,158
244,334,71,158
244,334,71,158
244,334,71,158
244,334,70,158
244,334,70,158
244,334,70,158
244,334,70,158
244,334,70,158
244,334,70,158
244,334,70,158
244,334,70,158
244,333,70,158
244,333,70,158
244,333,70,158
244,333,70,159
244,333,69,159
245,333,69,159
244,333,70,159
243,333,71,159
244,333,70,159
244,332,70,159
244,332,70,159
244,332,69,159
244,332,69,159
244,332,68,159
244,332,68,159
244,332,68,159
243,332,68,159
243,332,69,159
242,332,68,159
242,332,68,159
242,332,68,159
234,331,71,159
231,331,70,159
230,331,71,159
231,331,70,159
231,331,70,159
231,331,70,159
231,331,70,159
231,331,70,159
231,331,70,159
231,331,70,159
230,331,71,159
230,331,71,159
232,331,70,159
232,331,70,159
232,331,71,159
233,331,70,159
234,331,70,159
234,331,70,159
234,331,70,159
233,331,71,159
234,331,70,159
234,331,70,159
234,331,70,159
234,331,70,159
232,331,71,159
233,331,70,159
233,332,71,159
234,331,70,160
234,331,70,160
234,331,70,160
234,331,70,160
234,331,70,160
234,331,69,160
233,331,70,160
234,331,69,160
234,331,69,160
234,331,69,160
233,331,70,160
233,331,70,160
233,331,70,160
234,331,69,160
234,331,69,160
234,331,69,160
234,331,69,160
234,331,69,160
235,331,69,160
233,331,70,160
233,331,71,160
234,331,70,160
233,331,70,160
233,331,71,160
232,331,71,160
233,331,70,160
234,331,69,160
234,331,69,160
234,331,69,160
233,331,70,160
234,331,69,160
233,331,70,160
233,331,70,160
232,331,71,160
232,331,71,160
233,331,70,160
233,331,70,160
233,331,70,160
233,331,70,159
233,331,70,159
232,331,71,159
232,331,71,159
233,332,70,159
233,332,70,158
234,332,69,158
234,332,68,158
235,332,67,158
235,333,67,158
234,333,67,158
236,333,65,157
237,333,63,157
237,333,61,156
235,334,62,156
233,334,63,156
232,334,62,156
232,334,61,156
232,334,60,156
231,334,62,156
231,334,61,155
231,334,60,155
230,334,60,155
229,334,60,155
229,334,58,155
228,334,56,155
228,334,57,155
228,334,57,155
228,334,56,155
228,334,55,155
228,334,59,155
227,334,56,154
226,334,59,155
225,334,56,155
224,334,57,155
223,333,58,156
223,332,58,157
222,331,59,158
222,332,59,157
222,332,59,157
222,331,59,158
221,330,59,161
220,329,59,163
213,329,67,164
209,329,67,166
206,329,69,165
202,330,71,165
200,328,72,168
198,325,73,172
197,325,72,171
195,324,71,171
195,326,74,169
195,327,78,168
195,327,74,168
195,326,71,169
195,326,72,169
196,327,74,168
195,327,73,168
195,326,72,169
195,327,69,168
195,327,69,168
195,327,69,168
194,327,69,168
194,327,69,168
194,327,70,168
194,327,71,168
191,327,74,168
187,327,78,168
184,327,80,168
181,327,82,168
180,327,82,168
178,327,82,168
179,327,81,168
180,327,80,168
180,327,79,168
180,327,77,168
180,327,75,168
180,327,74,168
180,327,72,168
180,327,72,168
180,327,72,168
180,327,71,168
181,327,71,168
183,327,69,168
185,327,67,168
186,327,66,168
186,327,66,168
186,327,66,168
187,327,65,168
187,327,65,168
188,327,65,168
189,327,64,168
189,327,64,168
191,327,62,167
193,327,61,167
194,327,61,167
196,327,61,167
196,327,59,167
196,327,58,166
196,327,58,166
196,327,57,166
198,327,56,166
200,327,54,166
202,327,53,166
205,327,52,166
208,327,51,166
208,327,51,166
208,327,51,166
208,327,50,166
208,327,50,166
209,327,49,166
210,327,48,166
210,327,48,166
210,327,48,166
210,327,47,166
210,327,47,166
210,327,47,166
210,327,47,166
210,327,47,166
210,327,47,166
211,327,46,166
212,327,45,166
212,327,46,166
212,327,47,166
212,327,46,166
213,327,46,166
213,327,46,166
213,327,47,166
214,327,47,166
214,327,47,166
214,327,47,166
214,327,47,166
214,327,45,166
214,327,43,166
214,327,43,166
214,327,44,166
214,327,44,166
214,327,44,166
214,327,44,166
214,327,44,166
214,327,45,166
214,327,45,166
214,327,45,166
214,327,45,166
214,327,45,166
214,327,45,166
214,327,45,166
214,327,45,166
214,327,45,166
214,327,45,166
214,327,45,166
214,327,45,166
214,327,45,166
214,327,45,166
214,327,45,166
214,327,45,166
214,327,45,166
214,327,45,166
214,327,46,166
214,327,46,166
214,327,47,166
214,327,49,166
214,327,48,166
214,327,47,166
214,327,47,166
214,327,47,165
214,327,47,165
214,327,47,165
214,327,47,165
214,327,47,165
214,327,47,165
214,327,47,165
214,327,48,165
214,327,48,165
214,327,48,165
214,327,49,165
214,327,50,165
214,327,50,166
214,327,50,165
214,327,49,165
214,327,49,165
214,327,49,166
214,326,49,167
214,325,50,168
214,324,50,169
214,324,50,168
214,325,50,168
214,325,51,167
215,325,51,167
216,324,51,169
216,323,51,169
216,323,51,169
217,323,52,168
218,324,54,168
218,325,56,166
218,327,58,165
219,329,57,163
220,331,57,161
221,334,57,158
222,337,57,155
222,337,57,154
223,338,57,154
224,336,57,156
224,333,57,158
224,321,65,170
224,309,72,182
226,293,76,199
228,277,81,215
232,274,78,216
236,272,75,218
235,275,75,214
232,278,78,210
228,285,84,206
224,291,91,202
222,309,98,182
222,317,99,174
222,322,100,169
223,323,98,168
225,324,96,167
227,324,92,167
230,324,87,167
233,324,77,167
236,324,68,167
236,324,65,167
235,324,52,167
235,324,48,167
235,324,49,167
235,324,49,167
234,324,49,167
234,324,49,167
234,324,48,167
234,324,48,167
232,324,45,167
230,323,41,168
225,323,47,168
219,323,53,168
211,323,60,168
204,323,68,168
198,323,72,168
194,323,76,168
187,323,83,168
182,323,88,168
181,323,89,168
181,323,90,168
180,323,91,170
179,324,92,171
177,325,90,170
175,325,88,170
174,325,81,170
172,325,74,170
173,325,61,170
171,325,51,170
167,325,43,170
155,325,56,170
141,325,70,170
127,325,83,170
120,325,91,172
112,325,98,173
111,326,98,172
111,326,98,172
110,327,98,172
109,327,98,172
109,327,98,172
108,327,90,172
108,327,83,173
108,325,77,174
108,324,71,176
108,325,64,175
108,325,57,174
108,325,53,175
108,325,49,176
105,325,52,175
102,325,54,175
99,325,55,176
99,325,55,177
99,325,54,178
99,324,54,178
99,324,54,178
99,324,54,179
99,323,53,179
99,324,53,178
99,325,53,178
99,324,52,178
99,323,52,179
99,324,52,179
99,324,51,178
99,324,51,179
99,323,51,179
99,323,55,179
99,323,59,180
99,323,63,180
98,323,67,180
98,323,70,180
97,323,69,180
96,323,69,180
96,323,66,180
96,323,64,180
95,323,61,181
93,323,58,182
92,323,58,182
90,323,57,182
90,324,58,180
90,326,59,178
90,327,60,178
90,327,60,177
90,328,61,177
90,328,61,176
90,329,62,175
90,329,63,175
90,329,60,175
90,329,57,175
87,329,60,176
83,329,63,176
84,329,63,176
85,329,62,176
84,330,63,176
84,331,63,175
83,332,63,173
83,333,62,171
83,333,63,171
83,333,65,171
80,332,66,172
77,331,67,173
77,331,68,173
77,330,69,173
77,330,69,173
77,330,69,173
77,330,68,173
77,329,67,174
77,329,67,174
77,329,66,174
77,328,64,175
77,327,63,176
77,325,60,177
77,324,57,178
77,323,60,179
77,323,63,180
77,323,65,180
77,323,67,180
77,323,67,178
77,323,68,177
77,322,67,178
77,321,66,178
77,320,66,179
77,319,66,180
77,319,66,180
77,319,65,180
77,319,65,180
77,319,65,179
77,318,65,179
77,318,65,178
77,318,65,178
77,318,64,178
77,318,64,178
77,318,63,178
79,320,62,177
80,321,61,176
80,323,62,176
80,324,63,176
80,328,66,171
80,333,69,167
80,335,72,165
80,337,75,162
80,337,72,162
80,337,70,162
80,333,76,167
80,329,82,172
84,320,85,183
87,311,88,192
89,298,89,205
90,286,90,217
90,288,91,215
90,290,92,213
86,290,95,211
82,291,98,209
78,292,100,207
76,307,105,192
74,323,110,176
75,324,113,175
75,325,116,174
78,325,115,175
81,324,114,176
88,324,106,176
89,324,105,176
97,323,97,177
95,321,93,178
97,321,91,178
98,321,89,178
100,321,88,178
101,321,86,178
101,321,84,178
101,321,83,178
101,321,81,178
100,321,80,178
100,322,79,177
100,323,78,176
100,323,78,176
100,323,78,176
100,323,77,176
100,323,77,176
100,323,77,176
100,323,76,176
100,323,71,176
100,323,66,176
100,323,63,176
100,323,59,176
91,323,67,177
82,323,75,178
74,323,81,178
67,323,88,179
62,323,93,180
57,323,98,182
55,323,95,181
54,323,93,181
54,322,90,182
54,322,86,182
54,322,85,182
54,322,84,182
52,321,77,183
50,320,71,184
49,319,63,186
50,320,56,184
41,320,65,185
30,321,67,185
20,321,74,184
15,322,74,184
6,323,86,184
10,324,81,182
8,323,81,185
6,324,84,186
8,324,81,185
7,323,82,184
3,323,86,185
6,321,74,188
6,321,66,188
3,322,61,187
4,322,55,189
3,320,55,190
2,321,54,188
2,320,52,189
2,321,48,188
2,319,49,192
1,321,47,190
3,320,44,190
2,321,43,190
3,321,43,189
2,319,45,191
2,320,43,190
2,319,40,193
3,320,40,191
3,319,41,191
1,317,39,192
3,319,37,190
2,319,39,192
1,319,40,191
3,316,37,195
3,317,38,195
3,319,35,191
3,319,34,192
3,319,33,193
3,319,31,194
3,319,31,194
3,319,31,194
3,319,31,194
3,319,31,194
3,319,31,194
3,319,31,194
3,319,31,194
3,319,31,194
3,319,31,194
3,319,31,194
3,319,31,194
3,319,31,194
3,319,31,194
3,319,30,194
3,319,30,194
3,319,30,194
3,319,30,194
3,319,30,194
3,319,30,194
3,319,30,194
3,319,30,194
3,319,30,194
3,319,30,194
3,319,30,194
3,319,30,194
3,319,31,194
3,319,32,194
3,319,32,194
3,319,33,194
3,319,33,194
3,319,34,194
3,319,35,194
3,319,36,194
3,319,36,194
3,319,37,194
3,319,37,194
3,319,37,194
3,319,38,194
3,319,39,194
3,319,40,194
3,319,41,194
3,319,41,194
3,319,41,194
3,319,42,194
3,319,42,194
3,319,42,194
3,319,42,194
3,319,44,194
3,319,45,194
3,319,47,194
3,319,51,194
3,319,55,194
3,319,59,194
3,318,64,194
3,317,68,195
3,316,72,196
3,316,69,196
3,316,65,196
3,316,62,196
3,316,55,196
3,315,49,196
3,315,42,196
3,315,37,196
3,315,32,196
3,315,27,196
3,315,20,196
3,315,14,195
0,0,0,0
0,0,0,0
0,0,0,0
0,0,0,0
0,0,0,0
0,0,0,0
0,0,0,0
0,0,0,0
0,0,0,0
0,0,0,0
0,0,0,0
0,0,0,0
0,0,0,0
0,0,0,0
0,0,0,0
0,0,0,0
0,0,0,0
0,0,0,0
0,0,0,0
0,0,0,0
0,0,0,0
0,0,0,0
0,0,0,0
0,0,0,0
0,0,0,0
0,0,0,0
0,0,0,0
0,0,0,0
0,0,0,0
0,0,0,0
0,0,0,0
3,385,14,12
3,389,15,16
2,387,12,16
1,388,12,16
1,385,14,18
2,385,15,17
2,385,15,16
2,385,14,16
2,385,14,16
2,385,13,15
2,385,13,15
2,385,12,15
2,385,12,14
2,385,11,14
2,375,13,16
2,373,15,19
3,368,15,19
1,365,18,18
3,364,22,20
2,365,22,17
3,364,18,22
2,370,20,21
3,379,23,23
2,389,19,18
2,388,19,18
2,388,19,18
2,388,19,18
2,388,20,18
2,387,20,19
2,387,20,19
2,387,20,19
2,387,20,19
2,386,20,19
2,386,20,19
2,386,20,19
2,384,20,19
2,382,20,20
2,381,20,20
2,379,20,20
2,377,20,20
2,376,20,20
2,374,20,20
2,373,20,20
2,371,21,20
2,370,21,21
2,369,21,21
3,369,21,21
3,369,22,21
2,370,23,21
2,371,24,21
2,372,25,22
2,373,26,22
2,376,27,21
2,379,27,21
3,382,30,19
4,381,29,21
2,385,31,21
2,386,34,22
1,341,25,124
2,341,27,128
2,341,27,131
2,341,27,133
2,335,31,142
2,329,35,151
2,326,50,154
3,307,59,156
3,282,75,175
3,274,86,180
3,273,88,188
3,272,91,208
3,272,91,206
3,272,91,221
3,272,87,223
3,277,87,223
3,285,87,218
3,298,91,210
3,306,94,202
3,322,95,186
3,326,96,182
3,325,98,183
3,322,98,186
3,319,98,188
3,321,98,187
3,319,94,189
3,317,91,191
3,315,90,192
3,314,86,194
3,314,85,194
3,314,84,194
3,314,85,194
3,314,86,194
3,314,82,194
3,314,79,194
3,314,79,194
3,314,79,194
3,314,78,194
3,314,76,194
3,314,72,194
3,314,72,194
3,314,71,194
3,314,71,194
3,314,70,194
3,314,69,194
3,314,69,194
3,314,68,194
3,314,68,194
3,314,67,194
3,314,65,194
3,314,62,194
3,314,59,194
3,314,57,194
3,314,57,194
3,314,57,194
3,314,58,194
3,314,58,194
3,314,55,194
3,314,51,194
3,314,51,194
3,314,50,194
3,314,49,194
3,314,47,194
3,314,45,194
3,314,42,194
3,314,41,194
3,314,41,194
3,314,40,194
3,314,39,194
3,313,41,196
3,313,43,198
3,313,45,198
3,313,46,198
3,313,48,198
3,313,50,198
3,310,52,202
3,307,54,207
3,306,55,208
3,305,57,210
3,305,57,210
3,304,57,210
3,304,57,210
3,304,57,210
3,304,58,211
3,303,58,211
3,303,58,212
3,302,58,212
3,301,58,213
3,301,58,214
3,299,58,216
3,297,58,218
3,297,63,219
3,297,67,221
3,297,71,221
3,297,75,220
3,297,80,221
3,297,84,223
3,296,90,223
3,295,95,224
3,295,99,225
3,294,103,225
3,294,106,225
3,294,108,225
3,293,108,226
3,293,108,227
3,292,107,227
3,291,106,228
3,291,104,228
3,291,102,228
3,291,97,230
3,291,92,232
3,291,92,232
3,291,91,232
3,291,86,233
3,290,82,233
3,290,80,233
3,290,79,233
3,290,78,233
3,290,78,233
3,290,84,233
3,290,90,233
3,290,86,233
3,290,82,233
3,290,80,233
3,290,79,233
3,290,81,233
3,290,83,233
2,291,90,233
2,291,98,233
2,291,101,233
2,291,104,233
2,291,108,233
2,291,111,233
2,291,112,233
2,291,112,233
6,291,108,233
10,291,104,233
10,291,105,233
10,291,106,233
10,291,107,233
10,290,108,233
11,290,106,233
12,290,103,233
14,290,102,233
15,290,100,233
19,290,96,233
23,290,92,233
26,290,94,233
30,290,96,233
32,289,97,233
34,288,98,233
34,287,99,234
34,287,100,234
34,287,101,234
34,286,102,235
34,286,100,235
34,286,99,235
34,286,98,235
34,286,98,235
34,286,96,235
34,286,95,235
34,286,95,235
34,286,96,235
34,286,96,235
34,286,96,235
34,286,96,235
34,287,93,234
34,288,90,233
34,289,87,232
34,289,89,232
34,289,91,232
34,289,93,232
34,289,95,232
34,289,97,232
34,289,99,232
34,289,100,232
34,290,101,231
34,291,102,230
34,292,102,229
34,293,103,228
34,294,104,227
34,295,104,225
34,295,103,225
34,295,102,225
34,295,100,225
34,295,96,225
34,295,92,225
34,295,88,225
34,295,90,225
34,295,92,225
34,295,94,225
34,295,96,226
34,294,97,227
34,293,99,228
34,292,98,228
34,292,96,228
34,291,95,228
34,291,95,228
34,291,94,228
34,291,94,228
34,290,94,229
34,289,95,231
34,288,95,232
34,288,96,232
34,288,96,232
34,288,96,232
34,288,96,232
34,288,96,232
34,288,96,232
34,288,96,232
34,288,96,232
34,288,96,232
34,288,96,232
34,288,95,232
34,288,95,232
34,288,95,232
34,288,94,232
34,288,94,232
34,288,93,232
34,288,92,232
35,288,91,232
35,291,92,229
35,295,94,225
35,298,95,221
35,301,98,218
35,303,101,215
35,306,104,212
35,306,106,213
35,305,108,213
35,305,110,214
36,298,112,221
37,291,115,228
38,284,118,235
46,264,128,254
47,244,143,273
51,244,136,271
53,242,130,268
53,242,130,257
53,241,128,259
51,245,132,255
51,248,131,259
51,258,131,253
51,258,132,257
53,258,138,257
55,286,132,229
56,288,130,228
59,288,132,227
64,289,128,227
69,289,122,225
79,288,111,227
80,288,91,225
79,288,92,225
77,288,94,225
76,288,94,225
75,288,95,225
73,288,94,225
72,288,94,225
72,288,94,225
72,288,94,225
72,288,94,225
72,288,94,225
72,288,93,225
72,288,93,225
72,288,93,225
72,288,93,225
72,288,93,225
72,288,93,225
72,288,93,225
72,288,93,225
72,288,93,225
72,288,93,225
72,288,93,225
72,288,93,225
72,288,93,225
72,288,93,225
72,288,93,225
72,288,93,225
72,288,92,225
73,288,92,225
73,288,91,225
74,288,91,225
74,288,90,225
75,288,90,225
76,288,89,225
77,288,88,225
78,288,87,225
79,288,86,225
80,288,84,225
80,288,84,225
80,288,84,225
80,288,84,225
80,288,84,225
80,288,84,225
80,288,83,225
80,288,83,225
79,287,84,226
79,287,84,226
78,287,85,226
77,287,86,226
77,287,86,226
76,287,87,226
75,286,88,227
75,286,88,227
73,286,91,227
71,286,93,227
69,286,95,227
67,286,98,227
64,286,100,227
63,286,101,227
61,286,102,227
60,286,100,227
58,286,99,227
56,286,98,227
55,286,96,228
53,286,94,229
51,286,96,230
48,286,99,231
46,286,97,231
43,286,95,231
38,288,97,229
34,290,99,227
32,290,98,227
31,290,98,227
28,290,98,228
24,290,98,229
24,291,96,229
23,293,95,228
22,291,100,231
20,289,106,233
20,287,100,235
20,285,95,237
20,284,88,238
20,284,80,239
3,282,88,240
2,281,80,241
2,281,69,241
2,281,67,241
2,282,67,240
2,282,67,240
2,282,67,240
