444,331,18,32
444,331,18,32
443,331,18,32
443,331,18,32
443,331,18,32
443,331,18,32
443,331,18,32
443,331,18,32
443,331,18,32
443,331,18,32
443,331,18,32
443,331,18,32
443,331,18,32
443,331,18,32
443,331,18,32
443,331,18,32
443,331,18,32
443,331,18,32
442,331,18,32
442,331,18,32
442,331,18,32
442,331,18,32
442,331,18,32
442,331,18,32
442,331,18,32
442,331,18,32
442,331,18,32
442,331,18,32
442,331,18,32
442,330,18,33
442,330,18,33
442,329,18,34
442,329,18,34
442,328,18,35
442,328,18,35
442,327,18,36
442,326,18,37
442,325,18,38
442,324,18,39
443,323,18,40
443,322,18,41
443,321,18,42
443,320,18,43
443,319,18,44
444,319,19,44
445,318,20,44
445,318,21,44
446,318,22,44
447,318,23,44
447,318,23,44
448,318,24,44
449,318,24,44
451,317,24,45
452,317,24,45
453,317,24,45
455,317,24,46
456,316,24,46
458,316,24,46
459,316,24,46
460,316,24,46
462,316,24,46
463,316,24,46
464,316,24,46
466,316,24,46
468,316,24,46
469,316,24,46
471,316,24,46
473,316,24,46
474,316,24,46
475,316,24,46
476,316,25,46
478,316,25,47
479,316,25,47
480,316,26,47
481,316,26,47
482,316,26,47
484,316,26,47
485,316,26,47
486,315,26,47
488,315,26,47
489,315,26,47
490,315,26,47
492,315,26,47
493,315,26,47
494,315,26,47
496,315,26,47
498,315,26,47
499,315,26,47
501,315,26,47
503,315,26,47
504,315,26,47
506,315,27,47
507,315,27,47
509,315,27,47
510,315,28,47
511,315,28,47
512,315,28,47
513,315,28,47
514,315,28,47
515,315,28,47
516,315,28,47
518,315,28,47
520,315,27,47
522,315,26,47
524,315,25,47
526,315,25,47
528,314,24,47
529,315,24,47
531,315,24,47
532,315,24,47
533,316,24,47
535,316,24,47
536,316,24,47
538,316,24,46
540,316,25,46
542,316,26,46
543,316,26,46
545,316,27,46
547,316,27,46
548,316,27,46
549,316,27,46
550,316,27,46
550,316,27,46
551,316,27,46
552,316,27,46
554,316,27,46
556,316,26,46
558,316,25,46
560,316,25,46
562,316,24,46
563,317,24,45
565,317,24,45
566,318,24,44
568,318,24,44
569,318,24,44
570,319,24,44
571,319,24,44
572,319,24,44
573,319,24,44
574,320,24,44
575,320,24,43
577,320,24,43
578,320,24,42
580,320,24,42
581,319,24,42
583,319,24,41
584,319,24,41
585,319,24,41
586,319,24,41
588,319,24,41
589,319,24,41
590,319,24,41
591,320,24,41
591,320,25,41
592,320,25,41
593,320,26,41
594,320,26,41
594,321,26,41
595,321,26,41
596,321,26,41
597,321,26,41
598,321,26,41
599,321,26,41
599,321,27,42
599,321,27,42
600,321,28,43
600,321,29,43
601,321,29,43
601,321,30,44
602,321,30,44
603,321,30,44
604,321,30,44
605,322,30,43
606,322,30,43
607,322,30,43
609,322,30,43
610,322,30,42
610,323,30,42
610,323,30,41
610,324,30,41
610,324,30,41
610,325,30,40
610,325,30,40
610,325,30,40
610,326,30,39
610,326,30,39
610,327,30,38
610,327,30,37
609,328,30,37
609,329,30,36
609,329,30,36
609,330,30,35
609,330,30,35
609,330,30,35
610,330,29,35
610,330,29,35
610,330,29,35
611,330,28,35
611,330,28,35
611,330,28,35
612,330,27,35
612,330,27,35
612,330,27,35
613,330,27,35
613,330,26,35
613,330,26,35
614,330,26,35
614,330,26,35
614,330,26,34
614,330,26,34
614,330,26,34
614,331,26,33
614,331,26,33
614,331,26,33
614,331,26,33
614,331,26,32
614,331,26,32
614,331,26,32
614,331,26,32
614,331,26,32
614,332,26,32
615,332,26,32
615,332,26,31
615,332,26,31
615,332,26,31
615,332,26,31
615,332,26,31
615,332,26,31
615,332,26,31
615,332,26,31
615,332,26,31
615,332,26,31
615,332,26,31
615,332,26,31
615,332,26,31
615,332,26,31
615,332,26,31
615,332,26,31
616,332,26,31
616,332,26,31
616,332,26,31
616,332,26,31
616,332,26,31
616,332,26,31
616,332,26,31
616,332,26,31
616,332,26,31
616,332,26,31
616,332,26,31
616,332,26,31
616,332,26,31
616,332,26,31
616,332,26,31
616,332,26,31
616,332,26,31
616,332,26,31
616,332,26,31
616,332,26,31
616,332,26,31
616,332,26,31
616,332,26,31
616,332,26,31
616,332,26,31
616,332,26,31
616,332,26,31
616,332,26,31
616,332,26,31
616,332,26,31
616,332,26,31
616,332,26,31
616,332,26,31
616,332,26,31
616,332,26,31
616,332,26,31
616,332,26,31
616,332,26,31
616,332,26,31
616,332,26,31
616,331,26,31
616,331,26,31
616,331,26,31
616,331,26,31
616,331,26,31
616,331,26,31
616,331,26,31
616,331,26,31
616,331,26,31
616,331,26,31
616,331,26,31
616,331,26,31
616,331,26,31
616,331,26,31
616,332,26,31
616,332,26,31
616,332,26,31
616,332,26,31
616,332,26,31
616,332,26,31
616,332,26,31
616,332,26,31
616,332,26,31
616,332,26,31
616,332,26,31
616,332,26,31
616,332,26,31
616,333,26,31
616,333,26,31
616,333,26,31
616,333,26,31
616,333,26,31
616,333,26,31
616,333,26,31
616,333,26,31
616,333,26,31
616,333,26,31
616,333,26,31
616,333,26,31
616,333,26,31
616,333,26,31
616,333,26,31
616,333,26,31
616,332,26,31
617,332,26,31
617,332,26,31
617,332,26,31
617,332,26,31
617,332,26,31
617,332,26,31
617,332,26,31
617,332,26,31
617,332,26,31
617,332,26,31
617,332,26,31
617,332,26,31
617,332,26,31
617,332,26,31
617,332,26,31
617,332,26,31
617,332,26,31
617,332,26,31
617,332,26,31
617,333,26,31
617,333,26,31
617,333,26,31
617,333,26,31
617,333,26,31
617,333,26,31
617,333,26,31
617,333,26,31
617,333,26,31
617,333,26,31
617,334,26,31
617,334,26,31
617,334,26,31
617,334,26,31
617,334,26,31
617,333,26,31
617,333,26,31
617,333,26,31
617,333,26,31
617,333,26,31
617,333,26,31
617,333,26,31
617,333,26,31
617,333,26,31
617,333,26,31
617,332,26,31
617,332,26,31
617,332,26,31
617,333,26,31
617,333,26,31
617,333,26,31
617,333,26,31
617,333,26,31
617,333,26,31
617,333,26,31
617,333,26,31
617,333,26,31
617,333,26,31
617,334,26,31
617,334,26,31
617,334,26,31
616,334,26,31
616,333,26,31
616,333,26,31
615,333,26,31
615,333,26,31
615,333,26,31
615,333,26,31
614,333,26,31
614,332,26,31
614,332,26,31
613,332,26,31
613,332,26,31
613,332,26,31
613,331,26,32
613,331,26,32
613,330,26,33
613,329,26,34
613,329,26,34
613,328,26,35
613,327,26,36
613,327,26,36
613,326,26,37
613,326,26,37
613,325,26,38
613,324,26,39
613,324,26,39
614,323,26,39
614,323,26,40
615,322,26,40
616,322,26,41
616,321,26,41
617,321,26,41
617,320,26,42
617,320,26,42
617,320,26,43
617,320,26,43
617,320,26,44
617,320,26,44
617,320,26,45
617,320,26,45
617,320,26,45
617,320,26,45
617,320,26,45
617,320,26,45
617,319,26,45
617,319,26,45
618,319,26,45
618,319,25,45
619,319,25,45
620,319,25,45
620,319,24,45
621,319,24,45
622,319,24,45
622,319,23,45
623,318,23,45
624,318,23,45
624,318,23,45
624,318,23,45
625,318,23,45
625,318,23,45
626,318,23,45
626,318,23,45
626,317,23,45
627,317,23,45
627,317,23,45
627,317,23,45
627,317,23,45
627,317,23,45
628,317,23,45
628,317,23,45
628,317,23,45
628,317,23,45
628,317,23,45
628,317,23,45
628,317,23,45
628,317,23,45
629,317,23,45
629,317,23,45
629,317,23,44
629,317,23,44
629,317,23,44
630,317,23,44
630,317,23,43
630,317,23,43
630,317,23,43
630,317,23,43
629,317,23,43
629,317,23,43
629,317,23,43
629,317,23,43
628,317,23,43
628,317,23,43
628,318,23,43
628,318,23,43
627,318,23,43
627,318,23,43
627,318,23,43
626,318,23,43
626,318,23,43
625,318,23,43
625,318,23,43
625,318,23,43
624,318,23,43
624,318,23,43
623,318,23,42
623,318,23,42
622,318,23,42
622,318,23,41
621,318,23,41
621,318,23,41
620,318,23,41
620,318,23,41
619,318,23,41
619,318,23,41
618,318,23,41
618,318,23,41
618,318,23,41
617,318,23,41
616,318,23,41
616,318,23,41
615,318,23,41
614,318,23,41
614,318,23,41
613,318,23,41
613,318,23,41
612,318,23,41
611,318,23,41
611,318,23,41
610,318,23,41
610,318,23,41
609,318,23,41
609,318,23,40
608,318,23,40
608,319,23,40
607,319,23,39
607,319,23,39
606,319,23,39
606,320,23,38
605,320,23,38
605,320,23,38
605,320,23,38
605,320,23,37
605,320,23,37
605,321,23,37
605,321,23,37
604,321,23,37
603,322,23,36
603,322,23,36
602,322,23,36
601,323,23,35
601,323,23,35
600,324,23,35
600,324,23,34
599,324,23,34
599,325,23,34
599,325,23,33
599,326,23,33
599,326,23,33
598,326,23,32
598,327,23,32
598,327,23,32
598,327,23,31
598,328,23,31
598,328,23,31
599,328,23,30
599,329,23,30
599,329,23,30
599,329,23,29
599,330,23,29
599,330,23,29
600,330,23,29
600,330,23,29
600,330,23,29
600,330,23,29
600,330,23,29
600,330,23,29
600,330,23,29
601,330,23,29
601,329,23,29
601,329,23,29
601,329,23,29
601,329,23,29
601,330,23,29
601,330,23,29
601,330,23,29
601,330,23,28
601,330,23,28
601,330,23,28
601,330,23,28
601,330,23,28
601,330,23,28
601,331,23,28
601,331,23,27
601,331,23,27
601,331,23,27
601,331,23,27
601,331,23,27
601,331,23,27
601,331,23,27
601,331,23,27
601,331,23,27
601,331,23,27
601,331,23,27
601,331,23,27
601,331,23,27
601,331,23,27
601,331,23,27
601,331,23,27
601,331,23,27
601,331,23,27
601,331,23,27
601,331,23,27
601,331,23,27
601,331,23,27
601,331,23,27
601,331,23,27
601,331,23,27
600,331,23,27
600,331,23,27
600,331,23,27
600,331,23,27
600,331,23,27
600,331,23,27
600,331,23,27
600,331,23,27
600,331,23,27
600,331,23,27
600,331,23,27
600,331,23,27
600,331,23,27
600,331,23,27
600,331,23,27
600,331,23,27
600,331,23,27
600,331,23,27
600,331,23,27
600,331,23,27
600,331,23,27
600,331,23,27
600,331,23,27
600,331,23,27
600,331,23,27
600,331,23,27
599,331,23,27
599,331,23,27
599,331,23,27
598,331,23,27
598,331,23,27
598,331,23,27
597,331,23,27
597,331,23,27
597,331,23,27
597,331,23,27
596,331,23,27
596,331,23,27
596,332,23,27
596,332,23,27
596,332,23,27
594,332,23,27
592,332,23,27
590,331,23,27
588,331,23,27
586,331,23,27
584,331,23,27
575,331,23,27
572,331,23,27
569,332,23,27
566,333,23,27
563,334,23,27
563,334,23,27
563,334,23,27
563,334,23,27
563,334,23,27
563,334,23,27
563,334,23,27
563,334,23,27
563,335,23,27
563,335,23,27
563,335,23,27
563,335,23,27
563,335,23,27
563,335,23,27
563,335,23,27
563,335,23,27
563,335,23,27
563,336,23,27
563,336,23,27
563,336,23,27
563,336,23,27
563,336,23,27
563,336,23,27
563,336,23,27
563,336,23,27
563,336,23,27
563,336,23,27
563,336,23,27
563,336,23,27
562,336,23,27
562,336,23,27
562,335,23,27
562,335,23,27
562,335,23,27
562,335,23,27
562,335,23,27
561,335,23,27
561,335,23,27
561,335,23,27
561,335,23,27
561,335,23,27
561,335,23,27
561,335,23,27
561,335,23,27
560,335,23,27
560,334,23,27
560,334,23,27
560,334,23,27
560,334,23,27
560,334,23,27
560,334,23,27
560,334,23,27
559,334,23,27
559,334,23,27
559,334,23,27
559,334,23,27
559,334,23,27
559,334,23,27
559,334,23,27
558,334,23,27
558,333,23,27
558,333,23,27
559,334,23,27
561,334,23,27
562,335,23,27
563,336,23,27
564,336,23,27
557,333,23,27
557,333,23,27
557,333,23,27
557,333,23,27
557,333,23,27
557,333,23,27
557,333,23,27
557,332,23,27
557,332,23,27
557,332,23,27
557,332,23,27
557,332,23,27
557,333,23,27
556,333,23,27
556,333,23,27
555,333,23,27
556,333,23,27
556,333,23,27
557,333,23,27
557,333,23,27
562,335,23,27
560,334,23,27
558,333,23,27
555,332,23,28
555,332,23,28
555,332,23,28
555,331,23,28
554,331,23,28
554,331,23,29
554,330,23,29
554,330,23,29
554,330,23,29
554,330,23,29
554,331,23,30
554,332,23,30
554,332,23,30
554,333,23,30
554,331,23,31
554,328,23,31
553,329,23,31
553,328,23,31
553,328,23,31
553,327,23,31
553,327,23,32
553,326,23,32
553,326,23,32
553,325,23,33
554,324,22,34
554,323,22,34
555,323,21,35
555,322,21,36
555,321,21,37
556,320,20,38
556,320,20,38
556,320,20,38
557,319,20,38
557,319,20,38
557,319,20,38
558,319,20,38
558,318,20,38
558,318,20,38
558,318,20,38
558,318,20,38
558,318,20,38
558,318,20,38
558,318,20,38
558,318,20,38
558,317,20,38
558,317,20,38
558,317,20,38
558,317,20,38
558,317,20,38
559,317,20,38
559,317,20,38
560,317,20,38
561,317,20,38
561,317,20,38
562,317,20,38
562,317,20,38
563,317,20,38
563,317,20,38
564,317,20,38
565,317,20,38
565,317,20,38
565,318,20,38
565,318,20,38
565,318,20,38
565,318,20,38
566,318,20,38
566,318,20,38
566,318,20,38
566,318,20,38
566,318,20,38
556,317,20,38
546,317,20,38
536,316,20,38
521,322,20,38
511,316,20,38
511,314,20,38
510,312,20,38
510,312,20,38
509,312,20,38
509,312,20,38
508,311,20,38
507,311,20,38
507,311,20,38
506,311,20,38
506,311,20,38
505,311,20,38
504,311,20,38
504,311,20,38
503,311,20,38
503,311,20,38
502,311,20,38
502,311,20,38
501,311,20,38
500,311,20,38
500,311,20,38
500,311,20,38
499,312,20,38
499,312,20,38
499,312,20,38
498,312,20,38
498,312,20,38
498,312,20,38
498,312,20,38
497,312,20,38
497,312,20,38
497,312,20,38
497,312,20,38
497,312,21,38
496,312,21,38
496,312,21,38
496,312,21,38
496,312,21,38
496,312,21,38
496,312,22,38
496,312,22,38
496,312,22,38
495,312,22,38
495,312,22,38
495,312,22,38
495,312,22,38
494,312,22,38
494,312,22,38
494,313,22,38
493,313,22,38
493,313,22,38
493,313,22,38
492,313,22,38
492,313,22,38
492,313,22,38
491,313,22,38
491,313,22,38
490,313,22,38
489,313,22,38
488,313,22,38
487,313,22,38
486,313,22,38
486,313,22,38
485,313,22,38
484,313,22,38
483,313,22,38
482,313,22,38
482,313,22,38
481,313,22,38
480,313,22,38
480,314,22,38
479,314,22,38
478,314,22,38
478,314,22,38
477,314,22,38
476,314,22,38
475,314,22,38
474,314,22,38
472,314,22,38
471,314,22,38
470,314,22,38
469,314,22,38
468,314,22,38
467,314,22,38
466,314,22,38
465,314,22,38
465,314,22,38
464,314,22,38
464,314,22,38
463,314,22,38
463,314,22,38
462,314,22,38
461,314,22,38
460,314,22,38
460,314,22,38
459,314,22,38
458,314,22,38
457,314,22,38
456,314,22,38
455,314,22,38
455,314,22,38
454,314,22,38
454,314,22,38
454,314,22,38
453,314,22,38
453,314,22,38
452,314,22,38
452,314,22,38
452,314,22,38
451,314,22,38
451,314,22,39
451,314,22,39
451,314,22,39
451,314,22,40
450,314,22,40
450,314,22,41
450,314,22,41
450,314,22,41
449,314,22,41
449,314,22,42
449,314,22,42
448,314,22,42
448,314,22,43
448,313,22,43
448,313,22,43
448,314,22,43
449,314,22,43
449,314,22,43
450,314,22,43
450,314,22,43
451,314,22,43
451,314,22,43
452,314,22,43
452,314,22,43
453,314,22,43
454,314,22,43
454,315,22,43
454,315,22,43
455,315,22,43
455,315,22,43
456,315,22,43
456,315,22,43
457,315,22,43
457,315,22,43
458,315,22,43
458,315,22,43
458,315,22,43
458,315,22,43
458,315,22,43
459,316,22,43
459,316,22,43
459,316,22,43
459,316,22,43
459,316,22,43
459,316,22,43
460,316,22,43
460,316,22,43
452,316,22,43
443,316,22,43
435,317,22,43
426,317,22,43
418,317,22,43
400,319,22,43
398,318,22,43
396,318,22,43
393,319,22,43
391,319,22,43
388,320,22,43
379,320,22,43
370,320,22,43
354,322,22,43
342,321,22,43
330,320,22,43
319,319,22,43
317,318,22,43
311,319,22,43
305,320,22,43
289,321,22,43
273,321,22,43
257,323,22,43
242,324,22,43
241,323,22,43
240,323,22,43
239,323,22,43
234,323,22,43
230,322,22,43
221,323,22,43
219,322,22,43
216,322,22,43
213,322,22,43
210,321,22,43
207,321,22,43
194,320,22,43
181,320,22,43
167,320,23,43
156,321,23,43
145,322,24,43
144,322,24,43
142,322,25,43
140,322,26,43
133,322,26,43
127,322,26,43
120,322,26,43
118,323,26,43
115,323,26,43
112,323,26,43
109,323,26,43
106,323,26,43
103,323,26,43
103,324,26,43
103,324,26,43
103,324,26,43
103,324,26,43
103,324,26,43
101,324,26,44
100,325,26,44
98,325,26,45
97,325,26,45
95,325,26,45
94,324,26,46
82,324,26,46
72,322,26,46
68,323,26,46
64,323,26,46
63,323,26,46
62,324,26,46
59,324,26,46
56,324,27,46
53,324,28,47
50,324,29,47
47,324,30,47
44,324,31,47
39,324,31,47
35,324,31,47
31,324,31,47
26,324,31,47
